2021 2028 2034 2043 2051 2055 2055 2053 2050 2050 2053 2057 2064 2074 2084 2089 2094 2103 2107 2110 2116 2117 2115 2111 2109 2103 2099 2096 2090 2084 2081 2076 2067 2067 2070 2068 2060 2051 2038 2022 2008 1996 1983 1977 1974 1969 1962 1958 1952 1946 1944 1943 1943 1944 1945 1945 1946 1946 1945 1945 1946 1946 1944 1945 1947 1946 1946 1951 1958 1966 1973 1979 1983 1991 1999 2003 2006 2010 2013 2013 2014 2014 2012 2011 2012 2010 2006 2005 2002 1996 1991 1983 1976 1970 1966 1958 1951 1949 1948 1948 1946 1943 1942 1946 1951 1948 1947 1949 1948 1947 1945 1944 1945 1948 1948 1947 1949 1948 1947 1946 1944 1939 1933 1919 1898 1880 1868 1863 1878 1925 1981 2025 2073 2137 2202 2263 2325 2379 2428 2469 2492 2484 2450 2403 2345 2284 2220 2148 2070 2001 1933 1866 1808 1766 1757 1785 1823 1848 1875 1913 1941 1949 1952 1959 1960 1954 1953 1953 1952 1955 1955 1952 1954 1962 1968 1972 1979 1982 1978 1973 1967 1965 1973 1986 1999 2008 2012 2010 2002 1996 1992 1993 2005 2022 2032 2036 2036 2029 2022 2021 2028 2034 2043 2051 2055 2055 2053 2050 2050 2053 2057 2064 2074 2084 2089 2094 2103 2107 2110 2116 2117 2115 2111 2109 2103 2099 2096 2090 2084 2081 2076 2067 2067 2070 2068 2060 2051 2038 2022 2008 1996 1983 1977 1974 1969 1962 1958 1952 1946 1944 1943 1943 1944 1945 1945 1946 1946 1945 1945 1946 1946 1944 1945 1947 1946 1946 1951 1958 1966 1973 1979 1983 1991 1999 2003 2006 2010 2013 2013 2014 2014 2012 2011 2012 2010 2006 2005 2002 1996 1991 1983 1976 1970 1966 1958 1951 1949 1948 1948 1946 1943 1942 1946 1951 1948 1947 1949 1948 1947 1945 1944 1945 1948 1948 1947 1949 1948 1947 1946 1944 1939 1933 1919 1898 1880 1868 1863 1878 1925 1981 2025 2073 2137 2202 2263 2325 2379 2428 2469 2492 2484 2450 2403 2345 2284 2220 2148 2070 2001 1933 1866 1808 1766 1757 1785 1823 1848 1875 1913 1941 1949 1952 1959 1960 1954 1953 1953 1952 1955 1955 1952 1954 1962 1968 1972 1979 1982 1978 1973 1967 1965 1973 1986 1999 2008 2012 2010 2002 1996 1992 1993 2005 2022 2032 2036 2036 2029 2022 2021 2028 2034 2043 2051 2055 2055 2053 2050 2050 2053 2057 2064 2074 2084 2089 2094 2103 2107 2110 2116 2117 2115 2111 2109 2103 2099 2096 2090 2084 2081 2076 2067 2067 2070 2068 2060 2051 2038 2022 2008 1996 1983 1977 1974 1969 1962 1958 1952 1946 1944 1943 1943 1944 1945 1945 1946 1946 1945 1945 1946 1946 1944 1945 1947 1946 1946 1951 1958 1966 1973 1979 1983 1991 1999 2003 2006 2010 2013 2013 2014 2014 2012 2011 2012 2010 2006 2005 2002 1996 1991 1983 1976 1970 1966 1958 1951 1949 1948 1948 1946 1943 1942 1946 1951 1948 1947 1949 1948 1947 1945 1944 1945 1948 1948 1947 1949 1948 1947 1946 1944 1939 1933 1919 1898 1880 1868 1863 1878 1925 1981 2025 2073 2137 2202 2263 2325 2379 2428 2469 2492 2484 2450 2403 2345 2284 2220 2148 2070 2001 1933 1866 1808 1766 1757 1785 1823 1848 1875 1913 1941 1949 1952 1959 1960 1954 1953 1953 1952 1955 1955 1952 1954 1962 1968 1972 1979 1982 1978 1973 1967 1965 1973 1986 1999 2008 2012 2010 2002 1996 1992 1993 2005 2022 2032 2036 2036 2029 2022 2021 2028 2034 2043 2051 2055 2055 2053 2050 2050 2053 2057 2064 2074 2084 2089 2094 2103 2107 2110 2116 2117 2115 2111 2109 2103 2099 2096 2090 2084 2081 2076 2067 2067 2070 2068 2060 2051 2038 2022 2008 1996 1983 1977 1974 1969 1962 1958 1952 1946 1944 1943 1943 1944 1945 1945 1946 1946 1945 1945 1946 1946 1944 1945 1947 1946 1946 1951 1958 1966 1973 1979 1983 1991 1999 2003 2006 2010 2013 2013 2014 2014 2012 2011 2012 2010 2006 2005 2002 1996 1991 1983 1976 1970 1966 1958 1951 1949 1948 1948 1946 1943 1942 1946 1951 1948 1947 1949 1948 1947 1945 1944 1945 1948 1948 1947 1949 1948 1947 1946 1944 1939 1933 1919 1898 1880 1868 1863 1878 1925 1981 2025 2073 2137 2202 2263 2325 2379 2428 2469 2492 2484 2450 2403 2345 2284 2220 2148 2070 2001 1933 1866 1808 1766 1757 1785 1823 1848 1875 1913 1941 1949 1952 1959 1960 1954 1953 1953 1952 1955 1955 1952 1954 1962 1968 1972 1979 1982 1978 1973 1967 1965 1973 1986 1999 2008 2012 2010 2002 1996 1992 1993 2005 2022 2032 2036 2036 2029 2022 2021 2028 2034 2043 2051 2055 2055 2053 2050 2050 2053 2057 2064 2074 2084 2089 2094 2103 2107 2110 2116 2117 2115 2111 2109 2103 2099 2096 2090 2084 2081 2076 2067 2067 2070 2068 2060 2051 2038 2022 2008 1996 1983 1977 1974 1969 1962 1958 1952 1946 1944 1943 1943 1944 1945 1945 1946 1946 1945 1945 1946 1946 1944 1945 1947 1946 1946 1951 1958 1966 1973 1979 1983 1991 1999 2003 2006 2010 2013 2013 2014 2014 2012 2011 2012 2010 2006 2005 2002 1996 1991 1983 1976 1970 1966 1958 1951 1949 1948 1948 1946 1943 1942 1946 1951 1948 1947 1949 1948 1947 1945 1944 1945 1948 1948 1947 1949 1948 1947 1946 1944 1939 1933 1919 1898 1880 1868 1863 1878 1925 1981 2025 2073 2137 2202 2263 2325 2379 2428 2469 2492 2484 2450 2403 2345 2284 2220 2148 2070 2001 1933 1866 1808 1766 1757 1785 1823 1848 1875 1913 1941 1949 1952 1959 1960 1954 1953 1953 1952 1955 1955 1952 1954 1962 1968 1972 1979 1982 1978 1973 1967 1965 1973 1986 1999 2008 2012 2010 2002 1996 1992 1993 2005 2022 2032 2036 2036 2029 2022 2021 2028 2034 2043 2051 2055 2055 2053 2050 2050 2053 2057 2064 2074 2084 2089 2094 2103 2107 2110 2116 2117 2115 2111 2109 2103 2099 2096 2090 2084 2081 2076 2067 2067 2070 2068 2060 2051 2038 2022 2008 1996 1983 1977 1974 1969 1962 1958 1952 1946 1944 1943 1943 1944 1945 1945 1946 1946 1945 1945 1946 1946 1944 1945 1947 1946 1946 1951 1958 1966 1973 1979 1983 1991 1999 2003 2006 2010 2013 2013 2014 2014 2012 2011 2012 2010 2006 2005 2002 1996 1991 1983 1976 1970 1966 1958 1951 1949 1948 1948 1946 1943 1942 1946 1951 1948 1947 1949 1948 1947 1945 1944 1945 1948 1948 1947 1949 1948 1947 1946 1944 1939 1933 1919 1898 1880 1868 1863 1878 1925 1981 2025 2073 2137 2202 2263 2325 2379 2428 2469 2492 2484 2450 2403 2345 2284 2220 2148 2070 2001 1933 1866 1808 1766 1757 1785 1823 1848 1875 1913 1941 1949 1952 1959 1960 1954 1953 1953 1952 1955 1955 1952 1954 1962 1968 1972 1979 1982 1978 1973 1967 1965 1973 1986 1999 2008 2012 2010 2002 1996 1992 1993 2005 2022 2032 2036 2036 2029 2022 2021 2028 2034 2043 2051 2055 2055 2053 2050 2050 2053 2057 2064 2074 2084 2089 2094 2103 2107 2110 2116 2117 2115 2111 2109 2103 2099 2096 2090 2084 2081 2076 2067 2067 2070 2068 2060 2051 2038 2022 2008 1996 1983 1977 1974 1969 1962 1958 1952 1946 1944 1943 1943 1944 1945 1945 1946 1946 1945 1945 1946 1946 1944 1945 1947 1946 1946 1951 1958 1966 1973 1979 1983 1991 1999 2003 2006 2010 2013 2013 2014 2014 2012 2011 2012 2010 2006 2005 2002 1996 1991 1983 1976 1970 1966 1958 1951 1949 1948 1948 1946 1943 1942 1946 1951 1948 1947 1949 1948 1947 1945 1944 1945 1948 1948 1947 1949 1948 1947 1946 1944 1939 1933 1919 1898 1880 1868 1863 1878 1925 1981 2025 2073 2137 2202 2263 2325 2379 2428 2469 2492 2484 2450 2403 2345 2284 2220 2148 2070 2001 1933 1866 1808 1766 1757 1785 1823 1848 1875 1913 1941 1949 1952 1959 1960 1954 1953 1953 1952 1955 1955 1952 1954 1962 1968 1972 1979 1982 1978 1973 1967 1965 1973 1986 1999 2008 2012 2010 2002 1996 1992 1993 2005 2022 2032 2036 2036 2029 2022 2021 2028 2034 2043 2051 2055 2055 2053 2050 2050 2053 2057 2064 2074 2084 2089 2094 2103 2107 2110 2116 2117 2115 2111 2109 2103 2099 2096 2090 2084 2081 2076 2067 2067 2070 2068 2060 2051 2038 2022 2008 1996 1983 1977 1974 1969 1962 1958 1952 1946 1944 1943 1943 1944 1945 1945 1946 1946 1945 1945 1946 1946 1944 1945 1947 1946 1946 1951 1958 1966 1973 1979 1983 1991 1999 2003 2006 2010 2013 2013 2014 2014 2012 2011 2012 2010 2006 2005 2002 1996 1991 1983 1976 1970 1966 1958 1951 1949 1948 1948 1946 1943 1942 1946 1951 1948 1947 1949 1948 1947 1945 1944 1945 1948 1948 1947 1949 1948 1947 1946 1944 1939 1933 1919 1898 1880 1868 1863 1878 1925 1981 2025 2073 2137 2202 2263 2325 2379 2428 2469 2492 2484 2450 2403 2345 2284 2220 2148 2070 2001 1933 1866 1808 1766 1757 1785 1823 1848 1875 1913 1941 1949 1952 1959 1960 1954 1953 1953 1952 1955 1955 1952 1954 1962 1968 1972 1979 1982 1978 1973 1967 1965 1973 1986 1999 2008 2012 2010 2002 1996 1992 1993 2005 2022 2032 2036 2036 2029 2022 2021 2028 2034 2043 2051 2055 2055 2053 2050 2050 2053 2057 2064 2074 2084 2089 2094 2103 2107 2110 2116 2117 2115 2111 2109 2103 2099 2096 2090 2084 2081 2076 2067 2067 2070 2068 2060 2051 2038 2022 2008 1996 1983 1977 1974 1969 1962 1958 1952 1946 1944 1943 1943 1944 1945 1945 1946 1946 1945 1945 1946 1946 1944 1945 1947 1946 1946 1951 1958 1966 1973 1979 1983 1991 1999 2003 2006 2010 2013 2013 2014 2014 2012 2011 2012 2010 2006 2005 2002 1996 1991 1983 1976 1970 1966 1958 1951 1949 1948 1948 1946 1943 1942 1946 1951 1948 1947 1949 1948 1947 1945 1944 1945 1948 1948 1947 1949 1948 1947 1946 1944 1939 1933 1919 1898 1880 1868 1863 1878 1925 1981 2025 2073 2137 2202 2263 2325 2379 2428 2469 2492 2484 2450 2403 2345 2284 2220 2148 2070 2001 1933 1866 1808 1766 1757 1785 1823 1848 1875 1913 1941 1949 1952 1959 1960 1954 1953 1953 1952 1955 1955 1952 1954 1962 1968 1972 1979 1982 1978 1973 1967 1965 1973 1986 1999 2008 2012 2010 2002 1996 1992 1993 2005 2022 2032 2036 2036 2029 2022 2021 2028 2034 2043 2051 2055 2055 2053 2050 2050 2053 2057 2064 2074 2084 2089 2094 2103 2107 2110 2116 2117 2115 2111 2109 2103 2099 2096 2090 2084 2081 2076 2067 2067 2070 2068 2060 2051 2038 2022 2008 1996 1983 1977 1974 1969 1962 1958 1952 1946 1944 1943 1943 1944 1945 1945 1946 1946 1945 1945 1946 1946 1944 1945 1947 1946 1946 1951 1958 1966 1973 1979 1983 1991 1999 2003 2006 2010 2013 2013 2014 2014 2012 2011 2012 2010 2006 2005 2002 1996 1991 1983 1976 1970 1966 1958 1951 1949 1948 1948 1946 1943 1942 1946 1951 1948 1947 1949 1948 1947 1945 1944 1945 1948 1948 1947 1949 1948 1947 1946 1944 1939 1933 1919 1898 1880 1868 1863 1878 1925 1981 2025 2073 2137 2202 2263 2325 2379 2428 2469 2492 2484 2450 2403 2345 2284 2220 2148 2070 2001 1933 1866 1808 1766 1757 1785 1823 1848 1875 1913 1941 1949 1952 1959 1960 1954 1953 1953 1952 1955 1955 1952 1954 1962 1968 1972 1979 1982 1978 1973 1967 1965 1973 1986 1999 2008 2012 2010 2002 1996 1992 1993 2005 2022 2032 2036 2036 2029 2022 2021 2028 2034 2043 2051 2055 2055 2053 2050 2050 2053 2057 2064 2074 2084 2089 2094 2103 2107 2110 2116 2117 2115 2111 2109 2103 2099 2096 2090 2084 2081 2076 2067 2067 2070 2068 2060 2051 2038 2022 2008 1996 1983 1977 1974 1969 1962 1958 1952 1946 1944 1943 1943 1944 1945 1945 1946 1946 1945 1945 1946 1946 1944 1945 1947 1946 1946 1951 1958 1966 1973 1979 1983 1991 1999 2003 2006 2010 2013 2013 2014 2014 2012 2011 2012 2010 2006 2005 2002 1996 1991 1983 1976 1970 1966 1958 1951 1949 1948 1948 1946 1943 1942 1946 1951 1948 1947 1949 1948 1947 1945 1944 1945 1948 1948 1947 1949 1948 1947 1946 1944 1939 1933 1919 1898 1880 1868 1863 1878 1925 1981 2025 2073 2137 2202 2263 2325 2379 2428 2469 2492 2484 2450 2403 2345 2284 2220 2148 2070 2001 1933 1866 1808 1766 1757 1785 1823 1848 1875 1913 1941 1949 1952 1959 1960 1954 1953 1953 1952 1955 1955 1952 1954 1962 1968 1972 1979 1982 1978 1973 1967 1965 1973 1986 1999 2008 2012 2010 2002 1996 1992 1993 2005 2022 2032 2036 2036 2029 2022 2021 2028 2034 2043 2051 2055 2055 2053 2050 2050 2053 2057 2064 2074 2084 2089 2094 2103 2107 2110 2116 2117 2115 2111 2109 2103 2099 2096 2090 2084 2081 2076 2067 2067 2070 2068 2060 2051 2038 2022 2008 1996 1983 1977 1974 1969 1962 1958 1952 1946 1944 1943 1943 1944 1945 1945 1946 1946 1945 1945 1946 1946 1944 1945 1947 1946 1946 1951 1958 1966 1973 1979 1983 1991 1999 2003 2006 2010 2013 2013 2014 2014 2012 2011 2012 2010 2006 2005 2002 1996 1991 1983 1976 1970 1966 1958 1951 1949 1948 1948 1946 1943 1942 1946 1951 1948 1947 1949 1948 1947 1945 1944 1945 1948 1948 1947 1949 1948 1947 1946 1944 1939 1933 1919 1898 1880 1868 1863 1878 1925 1981 2025 2073 2137 2202 2263 2325 2379 2428 2469 2492 2484 2450 2403 2345 2284 2220 2148 2070 2001 1933 1866 1808 1766 1757 1785 1823 1848 1875 1913 1941 1949 1952 1959 1960 1954 1953 1953 1952 1955 1955 1952 1954 1962 1968 1972 1979 1982 1978 1973 1967 1965 1973 1986 1999 2008 2012 2010 2002 1996 1992 1993 2005 2022 2032 2036 2036 2029 2022 2021 2028 2034 2043 2051 2055 2055 2053 2050 2050 2053 2057 2064 2074 2084 2089 2094 2103 2107 2110 2116 2117 2115 2111 2109 2103 2099 2096 2090 2084 2081 2076 2067 2067 2070 2068 2060 2051 2038 2022 2008 1996 1983 1977 1974 1969 1962 1958 1952 1946 1944 1943 1943 1944 1945 1945 1946 1946 1945 1945 1946 1946 1944 1945 1947 1946 1946 1951 1958 1966 1973 1979 1983 1991 1999 2003 2006 2010 2013 2013 2014 2014 2012 2011 2012 2010 2006 2005 2002 1996 1991 1983 1976 1970 1966 1958 1951 1949 1948 1948 1946 1943 1942 1946 1951 1948 1947 1949 1948 1947 1945 1944 1945 1948 1948 1947 1949 1948 1947 1946 1944 1939 1933 1919 1898 1880 1868 1863 1878 1925 1981 2025 2073 2137 2202 2263 2325 2379 2428 2469 2492 2484 2450 2403 2345 2284 2220 2148 2070 2001 1933 1866 1808 1766 1757 1785 1823 1848 1875 1913 1941 1949 1952 1959 1960 1954 1953 1953 1952 1955 1955 1952 1954 1962 1968 1972 1979 1982 1978 1973 1967 1965 1973 1986 1999 2008 2012 2010 2002 1996 1992 1993 2005 2022 2032 2036 2036 2029 2022 2021 2028 2034 2043 2051 2055 2055 2053 2050 2050 2053 2057 2064 2074 2084 2089 2094 2103 2107 2110 2116 2117 2115 2111 2109 2103 2099 2096 2090 2084 2081 2076 2067 2067 2070 2068 2060 2051 2038 2022 2008 1996 1983 1977 1974 1969 1962 1958 1952 1946 1944 1943 1943 1944 1945 1945 1946 1946 1945 1945 1946 1946 1944 1945 1947 1946 1946 1951 1958 1966 1973 1979 1983 1991 1999 2003 2006 2010 2013 2013 2014 2014 2012 2011 2012 2010 2006 2005 2002 1996 1991 1983 1976 1970 1966 1958 1951 1949 1948 1948 1946 1943 1942 1946 1951 1948 1947 1949 1948 1947 1945 1944 1945 1948 1948 1947 1949 1948 1947 1946 1944 1939 1933 1919 1898 1880 1868 1863 1878 1925 1981 2025 2073 2137 2202 2263 2325 2379 2428 2469 2492 2484 2450 2403 2345 2284 2220 2148 2070 2001 1933 1866 1808 1766 1757 1785 1823 1848 1875 1913 1941 1949 1952 1959 1960 1954 1953 1953 1952 1955 1955 1952 1954 1962 1968 1972 1979 1982 1978 1973 1967 1965 1973 1986 1999 2008 2012 2010 2002 1996 1992 1993 2005 2022 2032 2036 2036 2029 2022 2021 2028 2034 2043 2051 2055 2055 2053 2050 2050 2053 2057 2064 2074 2084 2089 2094 2103 2107 2110 2116 2117 2115 2111 2109 2103 2099 2096 2090 2084 2081 2076 2067 2067 2070 2068 2060 2051 2038 2022 2008 1996 1983 1977 1974 1969 1962 1958 1952 1946 1944 1943 1943 1944 1945 1945 1946 1946 1945 1945 1946 1946 1944 1945 1947 1946 1946 1951 1958 1966 1973 1979 1983 1991 1999 2003 2006 2010 2013 2013 2014 2014 2012 2011 2012 2010 2006 2005 2002 1996 1991 1983 1976 1970 1966 1958 1951 1949 1948 1948 1946 1943 1942 1946 1951 1948 1947 1949 1948 1947 1945 1944 1945 1948 1948 1947 1949 1948 1947 1946 1944 1939 1933 1919 1898 1880 1868 1863 1878 1925 1981 2025 2073 2137 2202 2263 2325 2379 2428 2469 2492 2484 2450 2403 2345 2284 2220 2148 2070 2001 1933 1866 1808 1766 1757 1785 1823 1848 1875 1913 1941 1949 1952 1959 1960 1954 1953 1953 1952 1955 1955 1952 1954 1962 1968 1972 1979 1982 1978 1973 1967 1965 1973 1986 1999 2008 2012 2010 2002 1996 1992 1993 2005 2022 2032 2036 2036 2029 2022 2021 2028 2034 2043 2051 2055 2055 2053 2050 2050 2053 2057 2064 2074 2084 2089 2094 2103 2107 2110 2116 2117 2115 2111 2109 2103 2099 2096 2090 2084 2081 2076 2067 2067 2070 2068 2060 2051 2038 2022 2008 1996 1983 1977 1974 1969 1962 1958 1952 1946 1944 1943 1943 1944 1945 1945 1946 1946 1945 1945 1946 1946 1944 1945 1947 1946 1946 1951 1958 1966 1973 1979 1983 1991 1999 2003 2006 2010 2013 2013 2014 2014 2012 2011 2012 2010 2006 2005 2002 1996 1991 1983 1976 1970 1966 1958 1951 1949 1948 1948 1946 1943 1942 1946 1951 1948 1947 1949 1948 1947 1945 1944 1945 1948 1948 1947 1949 1948 1947 1946 1944 1939 1933 1919 1898 1880 1868 1863 1878 1925 1981 2025 2073 2137 2202 2263 2325 2379 2428 2469 2492 2484 2450 2403 2345 2284 2220 2148 2070 2001 1933 1866 1808 1766 1757 1785 1823 1848 1875 1913 1941 1949 1952 1959 1960 1954 1953 1953 1952 1955 1955 1952 1954 1962 1968 1972 1979 1982 1978 1973 1967 1965 1973 1986 1999 2008 2012 2010 2002 1996 1992 1993 2005 2022 2032 2036 2036 2029 2022 2021 2028 2034 2043 2051 2055 2055 2053 2050 2050 2053 2057 2064 2074 2084 2089 2094 2103 2107 2110 2116 2117 2115 2111 2109 2103 2099 2096 2090 2084 2081 2076 2067 2067 2070 2068 2060 2051 2038 2022 2008 1996 1983 1977 1974 1969 1962 1958 1952 1946 1944 1943 1943 1944 1945 1945 1946 1946 1945 1945 1946 1946 1944 1945 1947 1946 1946 1951 1958 1966 1973 1979 1983 1991 1999 2003 2006 2010 2013 2013 2014 2014 2012 2011 2012 2010 2006 2005 2002 1996 1991 1983 1976 1970 1966 1958 1951 1949 1948 1948 1946 1943 1942 1946 1951 1948 1947 1949 1948 1947 1945 1944 1945 1948 1948 1947 1949 1948 1947 1946 1944 1939 1933 1919 1898 1880 1868 1863 1878 1925 1981 2025 2073 2137 2202 2263 2325 2379 2428 2469 2492 2484 2450 2403 2345 2284 2220 2148 2070 2001 1933 1866 1808 1766 1757 1785 1823 1848 1875 1913 1941 1949 1952 1959 1960 1954 1953 1953 1952 1955 1955 1952 1954 1962 1968 1972 1979 1982 1978 1973 1967 1965 1973 1986 1999 2008 2012 2010 2002 1996 1992 1993 2005 2022 2032 2036 2036 2029 2022 2021 2028 2034 2043 2051 2055 2055 2053 2050 2050 2053 2057 2064 2074 2084 2089 2094 2103 2107 2110 2116 2117 2115 2111 2109 2103 2099 2096 2090 2084 2081 2076 2067 2067 2070 2068 2060 2051 2038 2022 2008 1996 1983 1977 1974 1969 1962 1958 1952 1946 1944 1943 1943 1944 1945 1945 1946 1946 1945 1945 1946 1946 1944 1945 1947 1946 1946 1951 1958 1966 1973 1979 1983 1991 1999 2003 2006 2010 2013 2013 2014 2014 2012 2011 2012 2010 2006 2005 2002 1996 1991 1983 1976 1970 1966 1958 1951 1949 1948 1948 1946 1943 1942 1946 1951 1948 1947 1949 1948 1947 1945 1944 1945 1948 1948 1947 1949 1948 1947 1946 1944 1939 1933 1919 1898 1880 1868 1863 1878 1925 1981 2025 2073 2137 2202 2263 2325 2379 2428 2469 2492 2484 2450 2403 2345 2284 2220 2148 2070 2001 1933 1866 1808 1766 1757 1785 1823 1848 1875 1913 1941 1949 1952 1959 1960 1954 1953 1953 1952 1955 1955 1952 1954 1962 1968 1972 1979 1982 1978 1973 1967 1965 1973 1986 1999 2008 2012 2010 2002 1996 1992 1993 2005 2022 2032 2036 2036 2029 2022 2021 2028 2034 2043 2051 2055 2055 2053 2050 2050 2053 2057 2064 2074 2084 2089 2094 2103 2107 2110 2116 2117 2115 2111 2109 2103 2099 2096 2090 2084 2081 2076 2067 2067 2070 2068 2060 2051 2038 2022 2008 1996 1983 1977 1974 1969 1962 1958 1952 1946 1944 1943 1943 1944 1945 1945 1946 1946 1945 1945 1946 1946 1944 1945 1947 1946 1946 1951 1958 1966 1973 1979 1983 1991 1999 2003 2006 2010 2013 2013 2014 2014 2012 2011 2012 2010 2006 2005 2002 1996 1991 1983 1976 1970 1966 1958 1951 1949 1948 1948 1946 1943 1942 1946 1951 1948 1947 1949 1948 1947 1945 1944 1945 1948 1948 1947 1949 1948 1947 1946 1944 1939 1933 1919 1898 1880 1868 1863 1878 1925 1981 2025 2073 2137 2202 2263 2325 2379 2428 2469 2492 2484 2450 2403 2345 2284 2220 2148 2070 2001 1933 1866 1808 1766 1757 1785 1823 1848 1875 1913 1941 1949 1952 1959 1960 1954 1953 1953 1952 1955 1955 1952 1954 1962 1968 1972 1979 1982 1978 1973 1967 1965 1973 1986 1999 2008 2012 2010 2002 1996 1992 1993 2005 2022 2032 2036 2036 2029 2022 2021 2028 2034 2043 2051 2055 2055 2053 2050 2050 2053 2057 2064 2074 2084 2089 2094 2103 2107 2110 2116 2117 2115 2111 2109 2103 2099 2096 2090 2084 2081 2076 2067 2067 2070 2068 2060 2051 2038 2022 2008 1996 1983 1977 1974 1969 1962 1958 1952 1946 1944 1943 1943 1944 1945 1945 1946 1946 1945 1945 1946 1946 1944 1945 1947 1946 1946 1951 1958 1966 1973 1979 1983 1991 1999 2003 2006 2010 2013 2013 2014 2014 2012 2011 2012 2010 2006 2005 2002 1996 1991 1983 1976 1970 1966 1958 1951 1949 1948 1948 1946 1943 1942 1946 1951 1948 1947 1949 1948 1947 1945 1944 1945 1948 1948 1947 1949 1948 1947 1946 1944 1939 1933 1919 1898 1880 1868 1863 1878 1925 1981 2025 2073 2137 2202 2263 2325 2379 2428 2469 2492 2484 2450 2403 2345 2284 2220 2148 2070 2001 1933 1866 1808 1766 1757 1785 1823 1848 1875 1913 1941 1949 1952 1959 1960 1954 1953 1953 1952 1955 1955 1952 1954 1962 1968 1972 1979 1982 1978 1973 1967 1965 1973 1986 1999 2008 2012 2010 2002 1996 1992 1993 2005 2022 2032 2036 2036 2029 2022 2021 2028 2034 2043 2051 2055 2055 2053 2050 2050 2053 2057 2064 2074 2084 2089 2094 2103 2107 2110 2116 2117 2115 2111 2109 2103 2099 2096 2090 2084 2081 2076 2067 2067 2070 2068 2060 2051 2038 2022 2008 1996 1983 1977 1974 1969 1962 1958 1952 1946 1944 1943 1943 1944 1945 1945 1946 1946 1945 1945 1946 1946 1944 1945 1947 1946 1946 1951 1958 1966 1973 1979 1983 1991 1999 2003 2006 2010 2013 2013 2014 2014 2012 2011 2012 2010 2006 2005 2002 1996 1991 1983 1976 1970 1966 1958 1951 1949 1948 1948 1946 1943 1942 1946 1951 1948 1947 1949 1948 1947 1945 1944 1945 1948 1948 1947 1949 1948 1947 1946 1944 1939 1933 1919 1898 1880 1868 1863 1878 1925 1981 2025 2073 2137 2202 2263 2325 2379 2428 2469 2492 2484 2450 2403 2345 2284 2220 2148 2070 2001 1933 1866 1808 1766 1757 1785 1823 1848 1875 1913 1941 1949 1952 1959 1960 1954 1953 1953 1952 1955 1955 1952 1954 1962 1968 1972 1979 1982 1978 1973 1967 1965 1973 1986 1999 2008 2012 2010 2002 1996 1992 1993 2005 2022 2032 2036 2036 2029 2022 2021 2028 2034 2043 2051 2055 2055 2053 2050 2050 2053 2057 2064 2074 2084 2089 2094 2103 2107 2110 2116 2117 2115 2111 2109 2103 2099 2096 2090 2084 2081 2076 2067 2067 2070 2068 2060 2051 2038 2022 2008 1996 1983 1977 1974 1969 1962 1958 1952 1946 1944 1943 1943 1944 1945 1945 1946 1946 1945 1945 1946 1946 1944 1945 1947 1946 1946 1951 1958 1966 1973 1979 1983 1991 1999 2003 2006 2010 2013 2013 2014 2014 2012 2011 2012 2010 2006 2005 2002 1996 1991 1983 1976 1970 1966 1958 1951 1949 1948 1948 1946 1943 1942 1946 1951 1948 1947 1949 1948 1947 1945 1944 1945 1948 1948 1947 1949 1948 1947 1946 1944 1939 1933 1919 1898 1880 1868 1863 1878 1925 1981 2025 2073 2137 2202 2263 2325 2379 2428 2469 2492 2484 2450 2403 2345 2284 2220 2148 2070 2001 1933 1866 1808 1766 1757 1785 1823 1848 1875 1913 1941 1949 1952 1959 1960 1954 1953 1953 1952 1955 1955 1952 1954 1962 1968 1972 1979 1982 1978 1973 1967 1965 1973 1986 1999 2008 2012 2010 2002 1996 1992 1993 2005 2022 2032 2036 2036 2029 2022 2021 2028 2034 2043 2051 2055 2055 2053 2050 2050 2053 2057 2064 2074 2084 2089 2094 2103 2107 2110 2116 2117 2115 2111 2109 2103 2099 2096 2090 2084 2081 2076 2067 2067 2070 2068 2060 2051 2038 2022 2008 1996 1983 1977 1974 1969 1962 1958 1952 1946 1944 1943 1943 1944 1945 1945 1946 1946 1945 1945 1946 1946 1944 1945 1947 1946 1946 1951 1958 1966 1973 1979 1983 1991 1999 2003 2006 2010 2013 2013 2014 2014 2012 2011 2012 2010 2006 2005 2002 1996 1991 1983 1976 1970 1966 1958 1951 1949 1948 1948 1946 1943 1942 1946 1951 1948 1947 1949 1948 1947 1945 1944 1945 1948 1948 1947 1949 1948 1947 1946 1944 1939 1933 1919 1898 1880 1868 1863 1878 1925 1981 2025 2073 2137 2202 2263 2325 2379 2428 2469 2492 2484 2450 2403 2345 2284 2220 2148 2070 2001 1933 1866 1808 1766 1757 1785 1823 1848 1875 1913 1941 1949 1952 1959 1960 1954 1953 1953 1952 1955 1955 1952 1954 1962 1968 1972 1979 1982 1978 1973 1967 1965 1973 1986 1999 2008 2012 2010 2002 1996 1992 1993 2005 2022 2032 2036 2036 2029 2022 2021 2028 2034 2043 2051 2055 2055 2053 2050 2050 2053 2057 2064 2074 2084 2089 2094 2103 2107 2110 2116 2117 2115 2111 2109 2103 2099 2096 2090 2084 2081 2076 2067 2067 2070 2068 2060 2051 2038 2022 2008 1996 1983 1977 1974 1969 1962 1958 1952 1946 1944 1943 1943 1944 1945 1945 1946 1946 1945 1945 1946 1946 1944 1945 1947 1946 1946 1951 1958 1966 1973 1979 1983 1991 1999 2003 2006 2010 2013 2013 2014 2014 2012 2011 2012 2010 2006 2005 2002 1996 1991 1983 1976 1970 1966 1958 1951 1949 1948 1948 1946 1943 1942 1946 1951 1948 1947 1949 1948 1947 1945 1944 1945 1948 1948 1947 1949 1948 1947 1946 1944 1939 1933 1919 1898 1880 1868 1863 1878 1925 1981 2025 2073 2137 2202 2263 2325 2379 2428 2469 2492 2484 2450 2403 2345 2284 2220 2148 2070 2001 1933 1866 1808 1766 1757 1785 1823 1848 1875 1913 1941 1949 1952 1959 1960 1954 1953 1953 1952 1955 1955 1952 1954 1962 1968 1972 1979 1982 1978 1973 1967 1965 1973 1986 1999 2008 2012 2010 2002 1996 1992 1993 2005 2022 2032 2036 2036 2029 2022 2021 2028 2034 2043 2051 2055 2055 2053 2050 2050 2053 2057 2064 2074 2084 2089 2094 2103 2107 2110 2116 2117 2115 2111 2109 2103 2099 2096 2090 2084 2081 2076 2067 2067 2070 2068 2060 2051 2038 2022 2008 1996 1983 1977 1974 1969 1962 1958 1952 1946 1944 1943 1943 1944 1945 1945 1946 1946 1945 1945 1946 1946 1944 1945 1947 1946 1946 1951 1958 1966 1973 1979 1983 1991 1999 2003 2006 2010 2013 2013 2014 2014 2012 2011 2012 2010 2006 2005 2002 1996 1991 1983 1976 1970 1966 1958 1951 1949 1948 1948 1946 1943 1942 1946 1951 1948 1947 1949 1948 1947 1945 1944 1945 1948 1948 1947 1949 1948 1947 1946 1944 1939 1933 1919 1898 1880 1868 1863 1878 1925 1981 2025 2073 2137 2202 2263 2325 2379 2428 2469 2492 2484 2450 2403 2345 2284 2220 2148 2070 2001 1933 1866 1808 1766 1757 1785 1823 1848 1875 1913 1941 1949 1952 1959 1960 1954 1953 1953 1952 1955 1955 1952 1954 1962 1968 1972 1979 1982 1978 1973 1967 1965 1973 1986 1999 2008 2012 2010 2002 1996 1992 1993 2005 2022 2032 2036 2036 2029 2022 2021 2028 2034 2043 2051 2055 2055 2053 2050 2050 2053 2057 2064 2074 2084 2089 2094 2103 2107 2110 2116 2117 2115 2111 2109 2103 2099 2096 2090 2084 2081 2076 2067 2067 2070 2068 2060 2051 2038 2022 2008 1996 1983 1977 1974 1969 1962 1958 1952 1946 1944 1943 1943 1944 1945 1945 1946 1946 1945 1945 1946 1946 1944 1945 1947 1946 1946 1951 1958 1966 1973 1979 1983 1991 1999 2003 2006 2010 2013 2013 2014 2014 2012 2011 2012 2010 2006 2005 2002 1996 1991 1983 1976 1970 1966 1958 1951 1949 1948 1948 1946 1943 1942 1946 1951 1948 1947 1949 1948 1947 1945 1944 1945 1948 1948 1947 1949 1948 1947 1946 1944 1939 1933 1919 1898 1880 1868 1863 1878 1925 1981 2025 2073 2137 2202 2263 2325 2379 2428 2469 2492 2484 2450 2403 2345 2284 2220 2148 2070 2001 1933 1866 1808 1766 1757 1785 1823 1848 1875 1913 1941 1949 1952 1959 1960 1954 1953 1953 1952 1955 1955 1952 1954 1962 1968 1972 1979 1982 1978 1973 1967 1965 1973 1986 1999 2008 2012 2010 2002 1996 1992 1993 2005 2022 2032 2036 2036 2029 2022 2021 2028 2034 2043 2051 2055 2055 2053 2050 2050 2053 2057 2064 2074 2084 2089 2094 2103 2107 2110 2116 2117 2115 2111 2109 2103 2099 2096 2090 2084 2081 2076 2067 2067 2070 2068 2060 2051 2038 2022 2008 1996 1983 1977 1974 1969 1962 1958 1952 1946 1944 1943 1943 1944 1945 1945 1946 1946 1945 1945 1946 1946 1944 1945 1947 1946 1946 1951 1958 1966 1973 1979 1983 1991 1999 2003 2006 2010 2013 2013 2014 2014 2012 2011 2012 2010 2006 2005 2002 1996 1991 1983 1976 1970 1966 1958 1951 1949 1948 1948 1946 1943 1942 1946 1951 1948 1947 1949 1948 1947 1945 1944 1945 1948 1948 1947 1949 1948 1947 1946 1944 1939 1933 1919 1898 1880 1868 1863 1878 1925 1981 2025 2073 2137 2202 2263 2325 2379 2428 2469 2492 2484 2450 2403 2345 2284 2220 2148 2070 2001 1933 1866 1808 1766 1757 1785 1823 1848 1875 1913 1941 1949 1952 1959 1960 1954 1953 1953 1952 1955 1955 1952 1954 1962 1968 1972 1979 1982 1978 1973 1967 1965 1973 1986 1999 2008 2012 2010 2002 1996 1992 1993 2005 2022 2032 2036 2036 2029 2022 2021 2028 2034 2043 2051 2055 2055 2053 2050 2050 2053 2057 2064 2074 2084 2089 2094 2103 2107 2110 2116 2117 2115 2111 2109 2103 2099 2096 2090 2084 2081 2076 2067 2067 2070 2068 2060 2051 2038 2022 2008 1996 1983 1977 1974 1969 1962 1958 1952 1946 1944 1943 1943 1944 1945 1945 1946 1946 1945 1945 1946 1946 1944 1945 1947 1946 1946 1951 1958 1966 1973 1979 1983 1991 1999 2003 2006 2010 2013 2013 2014 2014 2012 2011 2012 2010 2006 2005 2002 1996 1991 1983 1976 1970 1966 1958 1951 1949 1948 1948 1946 1943 1942 1946 1951 1948 1947 1949 1948 1947 1945 1944 1945 1948 1948 1947 1949 1948 1947 1946 1944 1939 1933 1919 1898 1880 1868 1863 1878 1925 1981 2025 2073 2137 2202 2263 2325 2379 2428 2469 2492 2484 2450 2403 2345 2284 2220 2148 2070 2001 1933 1866 1808 1766 1757 1785 1823 1848 1875 1913 1941 1949 1952 1959 1960 1954 1953 1953 1952 1955 1955 1952 1954 1962 1968 1972 1979 1982 1978 1973 1967 1965 1973 1986 1999 2008 2012 2010 2002 1996 1992 1993 2005 2022 2032 2036 2036 2029 2022 2021 2028 2034 2043 2051 2055 2055 2053 2050 2050 2053 2057 2064 2074 2084 2089 2094 2103 2107 2110 2116 2117 2115 2111 2109 2103 2099 2096 2090 2084 2081 2076 2067 2067 2070 2068 2060 2051 2038 2022 2008 1996 1983 1977 1974 1969 1962 1958 1952 1946 1944 1943 1943 1944 1945 1945 1946 1946 1945 1945 1946 1946 1944 1945 1947 1946 1946 1951 1958 1966 1973 1979 1983 1991 1999 2003 2006 2010 2013 2013 2014 2014 2012 2011 2012 2010 2006 2005 2002 1996 1991 1983 1976 1970 1966 1958 1951 1949 1948 1948 1946 1943 1942 1946 1951 1948 1947 1949 1948 1947 1945 1944 1945 1948 1948 1947 1949 1948 1947 1946 1944 1939 1933 1919 1898 1880 1868 1863 1878 1925 1981 2025 2073 2137 2202 2263 2325 2379 2428 2469 2492 2484 2450 2403 2345 2284 2220 2148 2070 2001 1933 1866 1808 1766 1757 1785 1823 1848 1875 1913 1941 1949 1952 1959 1960 1954 1953 1953 1952 1955 1955 1952 1954 1962 1968 1972 1979 1982 1978 1973 1967 1965 1973 1986 1999 2008 2012 2010 2002 1996 1992 1993 2005 2022 2032 2036 2036 2029 2022 2021 2028 2034 2043 2051 2055 2055 2053 2050 2050 2053 2057 2064 2074 2084 2089 2094 2103 2107 2110 2116 2117 2115 2111 2109 2103 2099 2096 2090 2084 2081 2076 2067 2067 2070 2068 2060 2051 2038 2022 2008 1996 1983 1977 1974 1969 1962 1958 1952 1946 1944 1943 1943 1944 1945 1945 1946 1946 1945 1945 1946 1946 1944 1945 1947 1946 1946 1951 1958 1966 1973 1979 1983 1991 1999 2003 2006 2010 2013 2013 2014 2014 2012 2011 2012 2010 2006 2005 2002 1996 1991 1983 1976 1970 1966 1958 1951 1949 1948 1948 1946 1943 1942 1946 1951 1948 1947 1949 1948 1947 1945 1944 1945 1948 1948 1947 1949 1948 1947 1946 1944 1939 1933 1919 1898 1880 1868 1863 1878 1925 1981 2025 2073 2137 2202 2263 2325 2379 2428 2469 2492 2484 2450 2403 2345 2284 2220 2148 2070 2001 1933 1866 1808 1766 1757 1785 1823 1848 1875 1913 1941 1949 1952 1959 1960 1954 1953 1953 1952 1955 1955 1952 1954 1962 1968 1972 1979 1982 1978 1973 1967 1965 1973 1986 1999 2008 2012 2010 2002 1996 1992 1993 2005 2022 2032 2036 2036 2029 2022 2021 2028 2034 2043 2051 2055 2055 2053 2050 2050 2053 2057 2064 2074 2084 2089 2094 2103 2107 2110 2116 2117 2115 2111 2109 2103 2099 2096 2090 2084 2081 2076 2067 2067 2070 2068 2060 2051 2038 2022 2008 1996 1983 1977 1974 1969 1962 1958 1952 1946 1944 1943 1943 1944 1945 1945 1946 1946 1945 1945 1946 1946 1944 1945 1947 1946 1946 1951 1958 1966 1973 1979 1983 1991 1999 2003 2006 2010 2013 2013 2014 2014 2012 2011 2012 2010 2006 2005 2002 1996 1991 1983 1976 1970 1966 1958 1951 1949 1948 1948 1946 1943 1942 1946 1951 1948 1947 1949 1948 1947 1945 1944 1945 1948 1948 1947 1949 1948 1947 1946 1944 1939 1933 1919 1898 1880 1868 1863 1878 1925 1981 2025 2073 2137 2202 2263 2325 2379 2428 2469 2492 2484 2450 2403 2345 2284 2220 2148 2070 2001 1933 1866 1808 1766 1757 1785 1823 1848 1875 1913 1941 1949 1952 1959 1960 1954 1953 1953 1952 1955 1955 1952 1954 1962 1968 1972 1979 1982 1978 1973 1967 1965 1973 1986 1999 2008 2012 2010 2002 1996 1992 1993 2005 2022 2032 2036 2036 2029 2022 2021 2028 2034 2043 2051 2055 2055 2053 2050 2050 2053 2057 2064 2074 2084 2089 2094 2103 2107 2110 2116 2117 2115 2111 2109 2103 2099 2096 2090 2084 2081 2076 2067 2067 2070 2068 2060 2051 2038 2022 2008 1996 1983 1977 1974 1969 1962 1958 1952 1946 1944 1943 1943 1944 1945 1945 1946 1946 1945 1945 1946 1946 1944 1945 1947 1946 1946 1951 1958 1966 1973 1979 1983 1991 1999 2003 2006 2010 2013 2013 2014 2014 2012 2011 2012 2010 2006 2005 2002 1996 1991 1983 1976 1970 1966 1958 1951 1949 1948 1948 1946 1943 1942 1946 1951 1948 1947 1949 1948 1947 1945 1944 1945 1948 1948 1947 1949 1948 1947 1946 1944 1939 1933 1919 1898 1880 1868 1863 1878 1925 1981 2025 2073 2137 2202 2263 2325 2379 2428 2469 2492 2484 2450 2403 2345 2284 2220 2148 2070 2001 1933 1866 1808 1766 1757 1785 1823 1848 1875 1913 1941 1949 1952 1959 1960 1954 1953 1953 1952 1955 1955 1952 1954 1962 1968 1972 1979 1982 1978 1973 1967 1965 1973 1986 1999 2008 2012 2010 2002 1996 1992 1993 2005 2022 2032 2036 2036 2029 2022 2021 2028 2034 2043 2051 2055 2055 2053 2050 2050 2053 2057 2064 2074 2084 2089 2094 2103 2107 2110 2116 2117 2115 2111 2109 2103 2099 2096 2090 2084 2081 2076 2067 2067 2070 2068 2060 2051 2038 2022 2008 1996 1983 1977 1974 1969 1962 1958 1952 1946 1944 1943 1943 1944 1945 1945 1946 1946 1945 1945 1946 1946 1944 1945 1947 1946 1946 1951 1958 1966 1973 1979 1983 1991 1999 2003 2006 2010 2013 2013 2014 2014 2012 2011 2012 2010 2006 2005 2002 1996 1991 1983 1976 1970 1966 1958 1951 1949 1948 1948 1946 1943 1942 1946 1951 1948 1947 1949 1948 1947 1945 1944 1945 1948 1948 1947 1949 1948 1947 1946 1944 1939 1933 1919 1898 1880 1868 1863 1878 1925 1981 2025 2073 2137 2202 2263 2325 2379 2428 2469 2492 2484 2450 2403 2345 2284 2220 2148 2070 2001 1933 1866 1808 1766 1757 1785 1823 1848 1875 1913 1941 1949 1952 1959 1960 1954 1953 1953 1952 1955 1955 1952 1954 1962 1968 1972 1979 1982 1978 1973 1967 1965 1973 1986 1999 2008 2012 2010 2002 1996 1992 1993 2005 2022 2032 2036 2036 2029 2022 2021 2028 2034 2043 2051 2055 2055 2053 2050 2050 2053 2057 2064 2074 2084 2089 2094 2103 2107 2110 2116 2117 2115 2111 2109 2103 2099 2096 2090 2084 2081 2076 2067 2067 2070 2068 2060 2051 2038 2022 2008 1996 1983 1977 1974 1969 1962 1958 1952 1946 1944 1943 1943 1944 1945 1945 1946 1946 1945 1945 1946 1946 1944 1945 1947 1946 1946 1951 1958 1966 1973 1979 1983 1991 1999 2003 2006 2010 2013 2013 2014 2014 2012 2011 2012 2010 2006 2005 2002 1996 1991 1983 1976 1970 1966 1958 1951 1949 1948 1948 1946 1943 1942 1946 1951 1948 1947 1949 1948 1947 1945 1944 1945 1948 1948 1947 1949 1948 1947 1946 1944 1939 1933 1919 1898 1880 1868 1863 1878 1925 1981 2025 2073 2137 2202 2263 2325 2379 2428 2469 2492 2484 2450 2403 2345 2284 2220 2148 2070 2001 1933 1866 1808 1766 1757 1785 1823 1848 1875 1913 1941 1949 1952 1959 1960 1954 1953 1953 1952 1955 1955 1952 1954 1962 1968 1972 1979 1982 1978 1973 1967 1965 1973 1986 1999 2008 2012 2010 2002 1996 1992 1993 2005 2022 2032 2036 2036 2029 2022 2021 2028 2034 2043 2051 2055 2055 2053 2050 2050 2053 2057 2064 2074 2084 2089 2094 2103 2107 2110 2116 2117 2115 2111 2109 2103 2099 2096 2090 2084 2081 2076 2067 2067 2070 2068 2060 2051 2038 2022 2008 1996 1983 1977 1974 1969 1962 1958 1952 1946 1944 1943 1943 1944 1945 1945 1946 1946 1945 1945 1946 1946 1944 1945 1947 1946 1946 1951 1958 1966 1973 1979 1983 1991 1999 2003 2006 2010 2013 2013 2014 2014 2012 2011 2012 2010 2006 2005 2002 1996 1991 1983 1976 1970 1966 1958 1951 1949 1948 1948 1946 1943 1942 1946 1951 1948 1947 1949 1948 1947 1945 1944 1945 1948 1948 1947 1949 1948 1947 1946 1944 1939 1933 1919 1898 1880 1868 1863 1878 1925 1981 2025 2073 2137 2202 2263 2325 2379 2428 2469 2492 2484 2450 2403 2345 2284 2220 2148 2070 2001 1933 1866 1808 1766 1757 1785 1823 1848 1875 1913 1941 1949 1952 1959 1960 1954 1953 1953 1952 1955 1955 1952 1954 1962 1968 1972 1979 1982 1978 1973 1967 1965 1973 1986 1999 2008 2012 2010 2002 1996 1992 1993 2005 2022 2032 2036 2036 2029 2022 2021 2028 2034 2043 2051 2055 2055 2053 2050 2050 2053 2057 2064 2074 2084 2089 2094 2103 2107 2110 2116 2117 2115 2111 2109 2103 2099 2096 2090 2084 2081 2076 2067 2067 2070 2068 2060 2051 2038 2022 2008 1996 1983 1977 1974 1969 1962 1958 1952 1946 1944 1943 1943 1944 1945 1945 1946 1946 1945 1945 1946 1946 1944 1945 1947 1946 1946 1951 1958 1966 1973 1979 1983 1991 1999 2003 2006 2010 2013 2013 2014 2014 2012 2011 2012 2010 2006 2005 2002 1996 1991 1983 1976 1970 1966 1958 1951 1949 1948 1948 1946 1943 1942 1946 1951 1948 1947 1949 1948 1947 1945 1944 1945 1948 1948 1947 1949 1948 1947 1946 1944 1939 1933 1919 1898 1880 1868 1863 1878 1925 1981 2025 2073 2137 2202 2263 2325 2379 2428 2469 2492 2484 2450 2403 2345 2284 2220 2148 2070 2001 1933 1866 1808 1766 1757 1785 1823 1848 1875 1913 1941 1949 1952 1959 1960 1954 1953 1953 1952 1955 1955 1952 1954 1962 1968 1972 1979 1982 1978 1973 1967 1965 1973 1986 1999 2008 2012 2010 2002 1996 1992 1993 2005 2022 2032 2036 2036 2029 2022 2021 2028 2034 2043 2051 2055 2055 2053 2050 2050 2053 2057 2064 2074 2084 2089 2094 2103 2107 2110 2116 2117 2115 2111 2109 2103 2099 2096 2090 2084 2081 2076 2067 2067 2070 2068 2060 2051 2038 2022 2008 1996 1983 1977 1974 1969 1962 1958 1952 1946 1944 1943 1943 1944 1945 1945 1946 1946 1945 1945 1946 1946 1944 1945 1947 1946 1946 1951 1958 1966 1973 1979 1983 1991 1999 2003 2006 2010 2013 2013 2014 2014 2012 2011 2012 2010 2006 2005 2002 1996 1991 1983 1976 1970 1966 1958 1951 1949 1948 1948 1946 1943 1942 1946 1951 1948 1947 1949 1948 1947 1945 1944 1945 1948 1948 1947 1949 1948 1947 1946 1944 1939 1933 1919 1898 1880 1868 1863 1878 1925 1981 2025 2073 2137 2202 2263 2325 2379 2428 2469 2492 2484 2450 2403 2345 2284 2220 2148 2070 2001 1933 1866 1808 1766 1757 1785 1823 1848 1875 1913 1941 1949 1952 1959 1960 1954 1953 1953 1952 1955 1955 1952 1954 1962 1968 1972 1979 1982 1978 1973 1967 1965 1973 1986 1999 2008 2012 2010 2002 1996 1992 1993 2005 2022 2032 2036 2036 2029 2022 2021 2028 2034 2043 2051 2055 2055 2053 2050 2050 2053 2057 2064 2074 2084 2089 2094 2103 2107 2110 2116 2117 2115 2111 2109 2103 2099 2096 2090 2084 2081 2076 2067 2067 2070 2068 2060 2051 2038 2022 2008 1996 1983 1977 1974 1969 1962 1958 1952 1946 1944 1943 1943 1944 1945 1945 1946 1946 1945 1945 1946 1946 1944 1945 1947 1946 1946 1951 1958 1966 1973 1979 1983 1991 1999 2003 2006 2010 2013 2013 2014 2014 2012 2011 2012 2010 2006 2005 2002 1996 1991 1983 1976 1970 1966 1958 1951 1949 1948 1948 1946 1943 1942 1946 1951 1948 1947 1949 1948 1947 1945 1944 1945 1948 1948 1947 1949 1948 1947 1946 1944 1939 1933 1919 1898 1880 1868 1863 1878 1925 1981 2025 2073 2137 2202 2263 2325 2379 2428 2469 2492 2484 2450 2403 2345 2284 2220 2148 2070 2001 1933 1866 1808 1766 1757 1785 1823 1848 1875 1913 1941 1949 1952 1959 1960 1954 1953 1953 1952 1955 1955 1952 1954 1962 1968 1972 1979 1982 1978 1973 1967 1965 1973 1986 1999 2008 2012 2010 2002 1996 1992 1993 2005 2022 2032 2036 2036 2029 2022 2021 2028 2034 2043 2051 2055 2055 2053 2050 2050 2053 2057 2064 2074 2084 2089 2094 2103 2107 2110 2116 2117 2115 2111 2109 2103 2099 2096 2090 2084 2081 2076 2067 2067 2070 2068 2060 2051 2038 2022 2008 1996 1983 1977 1974 1969 1962 1958 1952 1946 1944 1943 1943 1944 1945 1945 1946 1946 1945 1945 1946 1946 1944 1945 1947 1946 1946 1951 1958 1966 1973 1979 1983 1991 1999 2003 2006 2010 2013 2013 2014 2014 2012 2011 2012 2010 2006 2005 2002 1996 1991 1983 1976 1970 1966 1958 1951 1949 1948 1948 1946 1943 1942 1946 1951 1948 1947 1949 1948 1947 1945 1944 1945 1948 1948 1947 1949 1948 1947 1946 1944 1939 1933 1919 1898 1880 1868 1863 1878 1925 1981 2025 2073 2137 2202 2263 2325 2379 2428 2469 2492 2484 2450 2403 2345 2284 2220 2148 2070 2001 1933 1866 1808 1766 1757 1785 1823 1848 1875 1913 1941 1949 1952 1959 1960 1954 1953 1953 1952 1955 1955 1952 1954 1962 1968 1972 1979 1982 1978 1973 1967 1965 1973 1986 1999 2008 2012 2010 2002 1996 1992 1993 2005 2022 2032 2036 2036 2029 2022 2021 2028 2034 2043 2051 2055 2055 2053 2050 2050 2053 2057 2064 2074 2084 2089 2094 2103 2107 2110 2116 2117 2115 2111 2109 2103 2099 2096 2090 2084 2081 2076 2067 2067 2070 2068 2060 2051 2038 2022 2008 1996 1983 1977 1974 1969 1962 1958 1952 1946 1944 1943 1943 1944 1945 1945 1946 1946 1945 1945 1946 1946 1944 1945 1947 1946 1946 1951 1958 1966 1973 1979 1983 1991 1999 2003 2006 2010 2013 2013 2014 2014 2012 2011 2012 2010 2006 2005 2002 1996 1991 1983 1976 1970 1966 1958 1951 1949 1948 1948 1946 1943 1942 1946 1951 1948 1947 1949 1948 1947 1945 1944 1945 1948 1948 1947 1949 1948 1947 1946 1944 1939 1933 1919 1898 1880 1868 1863 1878 1925 1981 2025 2073 2137 2202 2263 2325 2379 2428 2469 2492 2484 2450 2403 2345 2284 2220 2148 2070 2001 1933 1866 1808 1766 1757 1785 1823 1848 1875 1913 1941 1949 1952 1959 1960 1954 1953 1953 1952 1955 1955 1952 1954 1962 1968 1972 1979 1982 1978 1973 1967 1965 1973 1986 1999 2008 2012 2010 2002 1996 1992 1993 2005 2022 2032 2036 2036 2029 2022 2021 2028 2034 2043 2051 2055 2055 2053 2050 2050 2053 2057 2064 2074 2084 2089 2094 2103 2107 2110 2116 2117 2115 2111 2109 2103 2099 2096 2090 2084 2081 2076 2067 2067 2070 2068 2060 2051 2038 2022 2008 1996 1983 1977 1974 1969 1962 1958 1952 1946 1944 1943 1943 1944 1945 1945 1946 1946 1945 1945 1946 1946 1944 1945 1947 1946 1946 1951 1958 1966 1973 1979 1983 1991 1999 2003 2006 2010 2013 2013 2014 2014 2012 2011 2012 2010 2006 2005 2002 1996 1991 1983 1976 1970 1966 1958 1951 1949 1948 1948 1946 1943 1942 1946 1951 1948 1947 1949 1948 1947 1945 1944 1945 1948 1948 1947 1949 1948 1947 1946 1944 1939 1933 1919 1898 1880 1868 1863 1878 1925 1981 2025 2073 2137 2202 2263 2325 2379 2428 2469 2492 2484 2450 2403 2345 2284 2220 2148 2070 2001 1933 1866 1808 1766 1757 1785 1823 1848 1875 1913 1941 1949 1952 1959 1960 1954 1953 1953 1952 1955 1955 1952 1954 1962 1968 1972 1979 1982 1978 1973 1967 1965 1973 1986 1999 2008 2012 2010 2002 1996 1992 1993 2005 2022 2032 2036 2036 2029 2022 2021 2028 2034 2043 2051 2055 2055 2053 2050 2050 2053 2057 2064 2074 2084 2089 2094 2103 2107 2110 2116 2117 2115 2111 2109 2103 2099 2096 2090 2084 2081 2076 2067 2067 2070 2068 2060 2051 2038 2022 2008 1996 1983 1977 1974 1969 1962 1958 1952 1946 1944 1943 1943 1944 1945 1945 1946 1946 1945 1945 1946 1946 1944 1945 1947 1946 1946 1951 1958 1966 1973 1979 1983 1991 1999 2003 2006 2010 2013 2013 2014 2014 2012 2011 2012 2010 2006 2005 2002 1996 1991 1983 1976 1970 1966 1958 1951 1949 1948 1948 1946 1943 1942 1946 1951 1948 1947 1949 1948 1947 1945 1944 1945 1948 1948 1947 1949 1948 1947 1946 1944 1939 1933 1919 1898 1880 1868 1863 1878 1925 1981 2025 2073 2137 2202 2263 2325 2379 2428 2469 2492 2484 2450 2403 2345 2284 2220 2148 2070 2001 1933 1866 1808 1766 1757 1785 1823 1848 1875 1913 1941 1949 1952 1959 1960 1954 1953 1953 1952 1955 1955 1952 1954 1962 1968 1972 1979 1982 1978 1973 1967 1965 1973 1986 1999 2008 2012 2010 2002 1996 1992 1993 2005 2022 2032 2036 2036 2029 2022 2021 2028 2034 2043 2051 2055 2055 2053 2050 2050 2053 2057 2064 2074 2084 2089 2094 2103 2107 2110 2116 2117 2115 2111 2109 2103 2099 2096 2090 2084 2081 2076 2067 2067 2070 2068 2060 2051 2038 2022 2008 1996 1983 1977 1974 1969 1962 1958 1952 1946 1944 1943 1943 1944 1945 1945 1946 1946 1945 1945 1946 1946 1944 1945 1947 1946 1946 1951 1958 1966 1973 1979 1983 1991 1999 2003 2006 2010 2013 2013 2014 2014 2012 2011 2012 2010 2006 2005 2002 1996 1991 1983 1976 1970 1966 1958 1951 1949 1948 1948 1946 1943 1942 1946 1951 1948 1947 1949 1948 1947 1945 1944 1945 1948 1948 1947 1949 1948 1947 1946 1944 1939 1933 1919 1898 1880 1868 1863 1878 1925 1981 2025 2073 2137 2202 2263 2325 2379 2428 2469 2492 2484 2450 2403 2345 2284 2220 2148 2070 2001 1933 1866 1808 1766 1757 1785 1823 1848 1875 1913 1941 1949 1952 1959 1960 1954 1953 1953 1952 1955 1955 1952 1954 1962 1968 1972 1979 1982 1978 1973 1967 1965 1973 1986 1999 2008 2012 2010 2002 1996 1992 1993 2005 2022 2032 2036 2036 2029 2022 2021 2028 2034 2043 2051 2055 2055 2053 2050 2050 2053 2057 2064 2074 2084 2089 2094 2103 2107 2110 2116 2117 2115 2111 2109 2103 2099 2096 2090 2084 2081 2076 2067 2067 2070 2068 2060 2051 2038 2022 2008 1996 1983 1977 1974 1969 1962 1958 1952 1946 1944 1943 1943 1944 1945 1945 1946 1946 1945 1945 1946 1946 1944 1945 1947 1946 1946 1951 1958 1966 1973 1979 1983 1991 1999 2003 2006 2010 2013 2013 2014 2014 2012 2011 2012 2010 2006 2005 2002 1996 1991 1983 1976 1970 1966 1958 1951 1949 1948 1948 1946 1943 1942 1946 1951 1948 1947 1949 1948 1947 1945 1944 1945 1948 1948 1947 1949 1948 1947 1946 1944 1939 1933 1919 1898 1880 1868 1863 1878 1925 1981 2025 2073 2137 2202 2263 2325 2379 2428 2469 2492 2484 2450 2403 2345 2284 2220 2148 2070 2001 1933 1866 1808 1766 1757 1785 1823 1848 1875 1913 1941 1949 1952 1959 1960 1954 1953 1953 1952 1955 1955 1952 1954 1962 1968 1972 1979 1982 1978 1973 1967 1965 1973 1986 1999 2008 2012 2010 2002 1996 1992 1993 2005 2022 2032 2036 2036 2029 2022 2021 2028 2034 2043 2051 2055 2055 2053 2050 2050 2053 2057 2064 2074 2084 2089 2094 2103 2107 2110 2116 2117 2115 2111 2109 2103 2099 2096 2090 2084 2081 2076 2067 2067 2070 2068 2060 2051 2038 2022 2008 1996 1983 1977 1974 1969 1962 1958 1952 1946 1944 1943 1943 1944 1945 1945 1946 1946 1945 1945 1946 1946 1944 1945 1947 1946 1946 1951 1958 1966 1973 1979 1983 1991 1999 2003 2006 2010 2013 2013 2014 2014 2012 2011 2012 2010 2006 2005 2002 1996 1991 1983 1976 1970 1966 1958 1951 1949 1948 1948 1946 1943 1942 1946 1951 1948 1947 1949 1948 1947 1945 1944 1945 1948 1948 1947 1949 1948 1947 1946 1944 1939 1933 1919 1898 1880 1868 1863 1878 1925 1981 2025 2073 2137 2202 2263 2325 2379 2428 2469 2492 2484 2450 2403 2345 2284 2220 2148 2070 2001 1933 1866 1808 1766 1757 1785 1823 1848 1875 1913 1941 1949 1952 1959 1960 1954 1953 1953 1952 1955 1955 1952 1954 1962 1968 1972 1979 1982 1978 1973 1967 1965 1973 1986 1999 2008 2012 2010 2002 1996 1992 1993 2005 2022 2032 2036 2036 2029 2022 2021 2028 2034 2043 2051 2055 2055 2053 2050 2050 2053 2057 2064 2074 2084 2089 2094 2103 2107 2110 2116 2117 2115 2111 2109 2103 2099 2096 2090 2084 2081 2076 2067 2067 2070 2068 2060 2051 2038 2022 2008 1996 1983 1977 1974 1969 1962 1958 1952 1946 1944 1943 1943 1944 1945 1945 1946 1946 1945 1945 1946 1946 1944 1945 1947 1946 1946 1951 1958 1966 1973 1979 1983 1991 1999 2003 2006 2010 2013 2013 2014 2014 2012 2011 2012 2010 2006 2005 2002 1996 1991 1983 1976 1970 1966 1958 1951 1949 1948 1948 1946 1943 1942 1946 1951 1948 1947 1949 1948 1947 1945 1944 1945 1948 1948 1947 1949 1948 1947 1946 1944 1939 1933 1919 1898 1880 1868 1863 1878 1925 1981 2025 2073 2137 2202 2263 2325 2379 2428 2469 2492 2484 2450 2403 2345 2284 2220 2148 2070 2001 1933 1866 1808 1766 1757 1785 1823 1848 1875 1913 1941 1949 1952 1959 1960 1954 1953 1953 1952 1955 1955 1952 1954 1962 1968 1972 1979 1982 1978 1973 1967 1965 1973 1986 1999 2008 2012 2010 2002 1996 1992 1993 2005 2022 2032 2036 2036 2029 2022 2021 2028 2034 2043 2051 2055 2055 2053 2050 2050 2053 2057 2064 2074 2084 2089 2094 2103 2107 2110 2116 2117 2115 2111 2109 2103 2099 2096 2090 2084 2081 2076 2067 2067 2070 2068 2060 2051 2038 2022 2008 1996 1983 1977 1974 1969 1962 1958 1952 1946 1944 1943 1943 1944 1945 1945 1946 1946 1945 1945 1946 1946 1944 1945 1947 1946 1946 1951 1958 1966 1973 1979 1983 1991 1999 2003 2006 2010 2013 2013 2014 2014 2012 2011 2012 2010 2006 2005 2002 1996 1991 1983 1976 1970 1966 1958 1951 1949 1948 1948 1946 1943 1942 1946 1951 1948 1947 1949 1948 1947 1945 1944 1945 1948 1948 1947 1949 1948 1947 1946 1944 1939 1933 1919 1898 1880 1868 1863 1878 1925 1981 2025 2073 2137 2202 2263 2325 2379 2428 2469 2492 2484 2450 2403 2345 2284 2220 2148 2070 2001 1933 1866 1808 1766 1757 1785 1823 1848 1875 1913 1941 1949 1952 1959 1960 1954 1953 1953 1952 1955 1955 1952 1954 1962 1968 1972 1979 1982 1978 1973 1967 1965 1973 1986 1999 2008 2012 2010 2002 1996 1992 1993 2005 2022 2032 2036 2036 2029 2022 2021 2028 2034 2043 2051 2055 2055 2053 2050 2050 2053 2057 2064 2074 2084 2089 2094 2103 2107 2110 2116 2117 2115 2111 2109 2103 2099 2096 2090 2084 2081 2076 2067 2067 2070 2068 2060 2051 2038 2022 2008 1996 1983 1977 1974 1969 1962 1958 1952 1946 1944 1943 1943 1944 1945 1945 1946 1946 1945 1945 1946 1946 1944 1945 1947 1946 1946 1951 1958 1966 1973 1979 1983 1991 1999 2003 2006 2010 2013 2013 2014 2014 2012 2011 2012 2010 2006 2005 2002 1996 1991 1983 1976 1970 1966 1958 1951 1949 1948 1948 1946 1943 1942 1946 1951 1948 1947 1949 1948 1947 1945 1944 1945 1948 1948 1947 1949 1948 1947 1946 1944 1939 1933 1919 1898 1880 1868 1863 1878 1925 1981 2025 2073 2137 2202 2263 2325 2379 2428 2469 2492 2484 2450 2403 2345 2284 2220 2148 2070 2001 1933 1866 1808 1766 1757 1785 1823 1848 1875 1913 1941 1949 1952 1959 1960 1954 1953 1953 1952 1955 1955 1952 1954 1962 1968 1972 1979 1982 1978 1973 1967 1965 1973 1986 1999 2008 2012 2010 2002 1996 1992 1993 2005 2022 2032 2036 2036 2029 2022 2021 2028 2034 2043 2051 2055 2055 2053 2050 2050 2053 2057 2064 2074 2084 2089 2094 2103 2107 2110 2116 2117 2115 2111 2109 2103 2099 2096 2090 2084 2081 2076 2067 2067 2070 2068 2060 2051 2038 2022 2008 1996 1983 1977 1974 1969 1962 1958 1952 1946 1944 1943 1943 1944 1945 1945 1946 1946 1945 1945 1946 1946 1944 1945 1947 1946 1946 1951 1958 1966 1973 1979 1983 1991 1999 2003 2006 2010 2013 2013 2014 2014 2012 2011 2012 2010 2006 2005 2002 1996 1991 1983 1976 1970 1966 1958 1951 1949 1948 1948 1946 1943 1942 1946 1951 1948 1947 1949 1948 1947 1945 1944 1945 1948 1948 1947 1949 1948 1947 1946 1944 1939 1933 1919 1898 1880 1868 1863 1878 1925 1981 2025 2073 2137 2202 2263 2325 2379 2428 2469 2492 2484 2450 2403 2345 2284 2220 2148 2070 2001 1933 1866 1808 1766 1757 1785 1823 1848 1875 1913 1941 1949 1952 1959 1960 1954 1953 1953 1952 1955 1955 1952 1954 1962 1968 1972 1979 1982 1978 1973 1967 1965 1973 1986 1999 2008 2012 2010 2002 1996 1992 1993 2005 2022 2032 2036 2036 2029 2022 2021 2028 2034 2043 2051 2055 2055 2053 2050 2050 2053 2057 2064 2074 2084 2089 2094 2103 2107 2110 2116 2117 2115 2111 2109 2103 2099 2096 2090 2084 2081 2076 2067 2067 2070 2068 2060 2051 2038 2022 2008 1996 1983 1977 1974 1969 1962 1958 1952 1946 1944 1943 1943 1944 1945 1945 1946 1946 1945 1945 1946 1946 1944 1945 1947 1946 1946 1951 1958 1966 1973 1979 1983 1991 1999 2003 2006 2010 2013 2013 2014 2014 2012 2011 2012 2010 2006 2005 2002 1996 1991 1983 1976 1970 1966 1958 1951 1949 1948 1948 1946 1943 1942 1946 1951 1948 1947 1949 1948 1947 1945 1944 1945 1948 1948 1947 1949 1948 1947 1946 1944 1939 1933 1919 1898 1880 1868 1863 1878 1925 1981 2025 2073 2137 2202 2263 2325 2379 2428 2469 2492 2484 2450 2403 2345 2284 2220 2148 2070 2001 1933 1866 1808 1766 1757 1785 1823 1848 1875 1913 1941 1949 1952 1959 1960 1954 1953 1953 1952 1955 1955 1952 1954 1962 1968 1972 1979 1982 1978 1973 1967 1965 1973 1986 1999 2008 2012 2010 2002 1996 1992 1993 2005 2022 2032 2036 2036 2029 2022 2021 2028 2034 2043 2051 2055 2055 2053 2050 2050 2053 2057 2064 2074 2084 2089 2094 2103 2107 2110 2116 2117 2115 2111 2109 2103 2099 2096 2090 2084 2081 2076 2067 2067 2070 2068 2060 2051 2038 2022 2008 1996 1983 1977 1974 1969 1962 1958 1952 1946 1944 1943 1943 1944 1945 1945 1946 1946 1945 1945 1946 1946 1944 1945 1947 1946 1946 1951 1958 1966 1973 1979 1983 1991 1999 2003 2006 2010 2013 2013 2014 2014 2012 2011 2012 2010 2006 2005 2002 1996 1991 1983 1976 1970 1966 1958 1951 1949 1948 1948 1946 1943 1942 1946 1951 1948 1947 1949 1948 1947 1945 1944 1945 1948 1948 1947 1949 1948 1947 1946 1944 1939 1933 1919 1898 1880 1868 1863 1878 1925 1981 2025 2073 2137 2202 2263 2325 2379 2428 2469 2492 2484 2450 2403 2345 2284 2220 2148 2070 2001 1933 1866 1808 1766 1757 1785 1823 1848 1875 1913 1941 1949 1952 1959 1960 1954 1953 1953 1952 1955 1955 1952 1954 1962 1968 1972 1979 1982 1978 1973 1967 1965 1973 1986 1999 2008 2012 2010 2002 1996 1992 1993 2005 2022 2032 2036 2036 2029 2022 2021 2028 2034 2043 2051 2055 2055 2053 2050 2050 2053 2057 2064 2074 2084 2089 2094 2103 2107 2110 2116 2117 2115 2111 2109 2103 2099 2096 2090 2084 2081 2076 2067 2067 2070 2068 2060 2051 2038 2022 2008 1996 1983 1977 1974 1969 1962 1958 1952 1946 1944 1943 1943 1944 1945 1945 1946 1946 1945 1945 1946 1946 1944 1945 1947 1946 1946 1951 1958 1966 1973 1979 1983 1991 1999 2003 2006 2010 2013 2013 2014 2014 2012 2011 2012 2010 2006 2005 2002 1996 1991 1983 1976 1970 1966 1958 1951 1949 1948 1948 1946 1943 1942 1946 1951 1948 1947 1949 1948 1947 1945 1944 1945 1948 1948 1947 1949 1948 1947 1946 1944 1939 1933 1919 1898 1880 1868 1863 1878 1925 1981 2025 2073 2137 2202 2263 2325 2379 2428 2469 2492 2484 2450 2403 2345 2284 2220 2148 2070 2001 1933 1866 1808 1766 1757 1785 1823 1848 1875 1913 1941 1949 1952 1959 1960 1954 1953 1953 1952 1955 1955 1952 1954 1962 1968 1972 1979 1982 1978 1973 1967 1965 1973 1986 1999 2008 2012 2010 2002 1996 1992 1993 2005 2022 2032 2036 2036 2029 2022 2021 2028 2034 2043 2051 2055 2055 2053 2050 2050 2053 2057 2064 2074 2084 2089 2094 2103 2107 2110 2116 2117 2115 2111 2109 2103 2099 2096 2090 2084 2081 2076 2067 2067 2070 2068 2060 2051 2038 2022 2008 1996 1983 1977 1974 1969 1962 1958 1952 1946 1944 1943 1943 1944 1945 1945 1946 1946 1945 1945 1946 1946 1944 1945 1947 1946 1946 1951 1958 1966 1973 1979 1983 1991 1999 2003 2006 2010 2013 2013 2014 2014 2012 2011 2012 2010 2006 2005 2002 1996 1991 1983 1976 1970 1966 1958 1951 1949 1948 1948 1946 1943 1942 1946 1951 1948 1947 1949 1948 1947 1945 1944 1945 1948 1948 1947 1949 1948 1947 1946 1944 1939 1933 1919 1898 1880 1868 1863 1878 1925 1981 2025 2073 2137 2202 2263 2325 2379 2428 2469 2492 2484 2450 2403 2345 2284 2220 2148 2070 2001 1933 1866 1808 1766 1757 1785 1823 1848 1875 1913 1941 1949 1952 1959 1960 1954 1953 1953 1952 1955 1955 1952 1954 1962 1968 1972 1979 1982 1978 1973 1967 1965 1973 1986 1999 2008 2012 2010 2002 1996 1992 1993 2005 2022 2032 2036 2036 2029 2022 2021 2028 2034 2043 2051 2055 2055 2053 2050 2050 2053 2057 2064 2074 2084 2089 2094 2103 2107 2110 2116 2117 2115 2111 2109 2103 2099 2096 2090 2084 2081 2076 2067 2067 2070 2068 2060 2051 2038 2022 2008 1996 1983 1977 1974 1969 1962 1958 1952 1946 1944 1943 1943 1944 1945 1945 1946 1946 1945 1945 1946 1946 1944 1945 1947 1946 1946 1951 1958 1966 1973 1979 1983 1991 1999 2003 2006 2010 2013 2013 2014 2014 2012 2011 2012 2010 2006 2005 2002 1996 1991 1983 1976 1970 1966 1958 1951 1949 1948 1948 1946 1943 1942 1946 1951 1948 1947 1949 1948 1947 1945 1944 1945 1948 1948 1947 1949 1948 1947 1946 1944 1939 1933 1919 1898 1880 1868 1863 1878 1925 1981 2025 2073 2137 2202 2263 2325 2379 2428 2469 2492 2484 2450 2403 2345 2284 2220 2148 2070 2001 1933 1866 1808 1766 1757 1785 1823 1848 1875 1913 1941 1949 1952 1959 1960 1954 1953 1953 1952 1955 1955 1952 1954 1962 1968 1972 1979 1982 1978 1973 1967 1965 1973 1986 1999 2008 2012 2010 2002 1996 1992 1993 2005 2022 2032 2036 2036 2029 2022 2021 2028 2034 2043 2051 2055 2055 2053 2050 2050 2053 2057 2064 2074 2084 2089 2094 2103 2107 2110 2116 2117 2115 2111 2109 2103 2099 2096 2090 2084 2081 2076 2067 2067 2070 2068 2060 2051 2038 2022 2008 1996 1983 1977 1974 1969 1962 1958 1952 1946 1944 1943 1943 1944 1945 1945 1946 1946 1945 1945 1946 1946 1944 1945 1947 1946 1946 1951 1958 1966 1973 1979 1983 1991 1999 2003 2006 2010 2013 2013 2014 2014 2012 2011 2012 2010 2006 2005 2002 1996 1991 1983 1976 1970 1966 1958 1951 1949 1948 1948 1946 1943 1942 1946 1951 1948 1947 1949 1948 1947 1945 1944 1945 1948 1948 1947 1949 1948 1947 1946 1944 1939 1933 1919 1898 1880 1868 1863 1878 1925 1981 2025 2073 2137 2202 2263 2325 2379 2428 2469 2492 2484 2450 2403 2345 2284 2220 2148 2070 2001 1933 1866 1808 1766 1757 1785 1823 1848 1875 1913 1941 1949 1952 1959 1960 1954 1953 1953 1952 1955 1955 1952 1954 1962 1968 1972 1979 1982 1978 1973 1967 1965 1973 1986 1999 2008 2012 2010 2002 1996 1992 1993 2005 2022 2032 2036 2036 2029 2022 2021 2028 2034 2043 2051 2055 2055 2053 2050 2050 2053 2057 2064 2074 2084 2089 2094 2103 2107 2110 2116 2117 2115 2111 2109 2103 2099 2096 2090 2084 2081 2076 2067 2067 2070 2068 2060 2051 2038 2022 2008 1996 1983 1977 1974 1969 1962 1958 1952 1946 1944 1943 1943 1944 1945 1945 1946 1946 1945 1945 1946 1946 1944 1945 1947 1946 1946 1951 1958 1966 1973 1979 1983 1991 1999 2003 2006 2010 2013 2013 2014 2014 2012 2011 2012 2010 2006 2005 2002 1996 1991 1983 1976 1970 1966 1958 1951 1949 1948 1948 1946 1943 1942 1946 1951 1948 1947 1949 1948 1947 1945 1944 1945 1948 1948 1947 1949 1948 1947 1946 1944 1939 1933 1919 1898 1880 1868 1863 1878 1925 1981 2025 2073 2137 2202 2263 2325 2379 2428 2469 2492 2484 2450 2403 2345 2284 2220 2148 2070 2001 1933 1866 1808 1766 1757 1785 1823 1848 1875 1913 1941 1949 1952 1959 1960 1954 1953 1953 1952 1955 1955 1952 1954 1962 1968 1972 1979 1982 1978 1973 1967 1965 1973 1986 1999 2008 2012 2010 2002 1996 1992 1993 2005 2022 2032 2036 2036 2029 2022 2021 2028 2034 2043 2051 2055 2055 2053 2050 2050 2053 2057 2064 2074 2084 2089 2094 2103 2107 2110 2116 2117 2115 2111 2109 2103 2099 2096 2090 2084 2081 2076 2067 2067 2070 2068 2060 2051 2038 2022 2008 1996 1983 1977 1974 1969 1962 1958 1952 1946 1944 1943 1943 1944 1945 1945 1946 1946 1945 1945 1946 1946 1944 1945 1947 1946 1946 1951 1958 1966 1973 1979 1983 1991 1999 2003 2006 2010 2013 2013 2014 2014 2012 2011 2012 2010 2006 2005 2002 1996 1991 1983 1976 1970 1966 1958 1951 1949 1948 1948 1946 1943 1942 1946 1951 1948 1947 1949 1948 1947 1945 1944 1945 1948 1948 1947 1949 1948 1947 1946 1944 1939 1933 1919 1898 1880 1868 1863 1878 1925 1981 2025 2073 2137 2202 2263 2325 2379 2428 2469 2492 2484 2450 2403 2345 2284 2220 2148 2070 2001 1933 1866 1808 1766 1757 1785 1823 1848 1875 1913 1941 1949 1952 1959 1960 1954 1953 1953 1952 1955 1955 1952 1954 1962 1968 1972 1979 1982 1978 1973 1967 1965 1973 1986 1999 2008 2012 2010 2002 1996 1992 1993 2005 2022 2032 2036 2036 2029 2022 2021 2028 2034 2043 2051 2055 2055 2053 2050 2050 2053 2057 2064 2074 2084 2089 2094 2103 2107 2110 2116 2117 2115 2111 2109 2103 2099 2096 2090 2084 2081 2076 2067 2067 2070 2068 2060 2051 2038 2022 2008 1996 1983 1977 1974 1969 1962 1958 1952 1946 1944 1943 1943 1944 1945 1945 1946 1946 1945 1945 1946 1946 1944 1945 1947 1946 1946 1951 1958 1966 1973 1979 1983 1991 1999 2003 2006 2010 2013 2013 2014 2014 2012 2011 2012 2010 2006 2005 2002 1996 1991 1983 1976 1970 1966 1958 1951 1949 1948 1948 1946 1943 1942 1946 1951 1948 1947 1949 1948 1947 1945 1944 1945 1948 1948 1947 1949 1948 1947 1946 1944 1939 1933 1919 1898 1880 1868 1863 1878 1925 1981 2025 2073 2137 2202 2263 2325 2379 2428 2469 2492 2484 2450 2403 2345 2284 2220 2148 2070 2001 1933 1866 1808 1766 1757 1785 1823 1848 1875 1913 1941 1949 1952 1959 1960 1954 1953 1953 1952 1955 1955 1952 1954 1962 1968 1972 1979 1982 1978 1973 1967 1965 1973 1986 1999 2008 2012 2010 2002 1996 1992 1993 2005 2022 2032 2036 2036 2029 2022 2021 2028 2034 2043 2051 2055 2055 2053 2050 2050 2053 2057 2064 2074 2084 2089 2094 2103 2107 2110 2116 2117 2115 2111 2109 2103 2099 2096 2090 2084 2081 2076 2067 2067 2070 2068 2060 2051 2038 2022 2008 1996 1983 1977 1974 1969 1962 1958 1952 1946 1944 1943 1943 1944 1945 1945 1946 1946 1945 1945 1946 1946 1944 1945 1947 1946 1946 1951 1958 1966 1973 1979 1983 1991 1999 2003 2006 2010 2013 2013 2014 2014 2012 2011 2012 2010 2006 2005 2002 1996 1991 1983 1976 1970 1966 1958 1951 1949 1948 1948 1946 1943 1942 1946 1951 1948 1947 1949 1948 1947 1945 1944 1945 1948 1948 1947 1949 1948 1947 1946 1944 1939 1933 1919 1898 1880 1868 1863 1878 1925 1981 2025 2073 2137 2202 2263 2325 2379 2428 2469 2492 2484 2450 2403 2345 2284 2220 2148 2070 2001 1933 1866 1808 1766 1757 1785 1823 1848 1875 1913 1941 1949 1952 1959 1960 1954 1953 1953 1952 1955 1955 1952 1954 1962 1968 1972 1979 1982 1978 1973 1967 1965 1973 1986 1999 2008 2012 2010 2002 1996 1992 1993 2005 2022 2032 2036 2036 2029 2022 2021 2028 2034 2043 2051 2055 2055 2053 2050 2050 2053 2057 2064 2074 2084 2089 2094 2103 2107 2110 2116 2117 2115 2111 2109 2103 2099 2096 2090 2084 2081 2076 2067 2067 2070 2068 2060 2051 2038 2022 2008 1996 1983 1977 1974 1969 1962 1958 1952 1946 1944 1943 1943 1944 1945 1945 1946 1946 1945 1945 1946 1946 1944 1945 1947 1946 1946 1951 1958 1966 1973 1979 1983 1991 1999 2003 2006 2010 2013 2013 2014 2014 2012 2011 2012 2010 2006 2005 2002 1996 1991 1983 1976 1970 1966 1958 1951 1949 1948 1948 1946 1943 1942 1946 1951 1948 1947 1949 1948 1947 1945 1944 1945 1948 1948 1947 1949 1948 1947 1946 1944 1939 1933 1919 1898 1880 1868 1863 1878 1925 1981 2025 2073 2137 2202 2263 2325 2379 2428 2469 2492 2484 2450 2403 2345 2284 2220 2148 2070 2001 1933 1866 1808 1766 1757 1785 1823 1848 1875 1913 1941 1949 1952 1959 1960 1954 1953 1953 1952 1955 1955 1952 1954 1962 1968 1972 1979 1982 1978 1973 1967 1965 1973 1986 1999 2008 2012 2010 2002 1996 1992 1993 2005 2022 2032 2036 2036 2029 2022 2021 2028 2034 2043 2051 2055 2055 2053 2050 2050 2053 2057 2064 2074 2084 2089 2094 2103 2107 2110 2116 2117 2115 2111 2109 2103 2099 2096 2090 2084 2081 2076 2067 2067 2070 2068 2060 2051 2038 2022 2008 1996 1983 1977 1974 1969 1962 1958 1952 1946 1944 1943 1943 1944 1945 1945 1946 1946 1945 1945 1946 1946 1944 1945 1947 1946 1946 1951 1958 1966 1973 1979 1983 1991 1999 2003 2006 2010 2013 2013 2014 2014 2012 2011 2012 2010 2006 2005 2002 1996 1991 1983 1976 1970 1966 1958 1951 1949 1948 1948 1946 1943 1942 1946 1951 1948 1947 1949 1948 1947 1945 1944 1945 1948 1948 1947 1949 1948 1947 1946 1944 1939 1933 1919 1898 1880 1868 1863 1878 1925 1981 2025 2073 2137 2202 2263 2325 2379 2428 2469 2492 2484 2450 2403 2345 2284 2220 2148 2070 2001 1933 1866 1808 1766 1757 1785 1823 1848 1875 1913 1941 1949 1952 1959 1960 1954 1953 1953 1952 1955 1955 1952 1954 1962 1968 1972 1979 1982 1978 1973 1967 1965 1973 1986 1999 2008 2012 2010 2002 1996 1992 1993 2005 2022 2032 2036 2036 2029 2022 2021 2028 2034 2043 2051 2055 2055 2053 2050 2050 2053 2057 2064 2074 2084 2089 2094 2103 2107 2110 2116 2117 2115 2111 2109 2103 2099 2096 2090 2084 2081 2076 2067 2067 2070 2068 2060 2051 2038 2022 2008 1996 1983 1977 1974 1969 1962 1958 1952 1946 1944 1943 1943 1944 1945 1945 1946 1946 1945 1945 1946 1946 1944 1945 1947 1946 1946 1951 1958 1966 1973 1979 1983 1991 1999 2003 2006 2010 2013 2013 2014 2014 2012 2011 2012 2010 2006 2005 2002 1996 1991 1983 1976 1970 1966 1958 1951 1949 1948 1948 1946 1943 1942 1946 1951 1948 1947 1949 1948 1947 1945 1944 1945 1948 1948 1947 1949 1948 1947 1946 1944 1939 1933 1919 1898 1880 1868 1863 1878 1925 1981 2025 2073 2137 2202 2263 2325 2379 2428 2469 2492 2484 2450 2403 2345 2284 2220 2148 2070 2001 1933 1866 1808 1766 1757 1785 1823 1848 1875 1913 1941 1949 1952 1959 1960 1954 1953 1953 1952 1955 1955 1952 1954 1962 1968 1972 1979 1982 1978 1973 1967 1965 1973 1986 1999 2008 2012 2010 2002 1996 1992 1993 2005 2022 2032 2036 2036 2029 2022 2021 2028 2034 2043 2051 2055 2055 2053 2050 2050 2053 2057 2064 2074 2084 2089 2094 2103 2107 2110 2116 2117 2115 2111 2109 2103 2099 2096 2090 2084 2081 2076 2067 2067 2070 2068 2060 2051 2038 2022 2008 1996 1983 1977 1974 1969 1962 1958 1952 1946 1944 1943 1943 1944 1945 1945 1946 1946 1945 1945 1946 1946 1944 1945 1947 1946 1946 1951 1958 1966 1973 1979 1983 1991 1999 2003 2006 2010 2013 2013 2014 2014 2012 2011 2012 2010 2006 2005 2002 1996 1991 1983 1976 1970 1966 1958 1951 1949 1948 1948 1946 1943 1942 1946 1951 1948 1947 1949 1948 1947 1945 1944 1945 1948 1948 1947 1949 1948 1947 1946 1944 1939 1933 1919 1898 1880 1868 1863 1878 1925 1981 2025 2073 2137 2202 2263 2325 2379 2428 2469 2492 2484 2450 2403 2345 2284 2220 2148 2070 2001 1933 1866 1808 1766 1757 1785 1823 1848 1875 1913 1941 1949 1952 1959 1960 1954 1953 1953 1952 1955 1955 1952 1954 1962 1968 1972 1979 1982 1978 1973 1967 1965 1973 1986 1999 2008 2012 2010 2002 1996 1992 1993 2005 2022 2032 2036 2036 2029 2022 2021 2028 2034 2043 2051 2055 2055 2053 2050 2050 2053 2057 2064 2074 2084 2089 2094 2103 2107 2110 2116 2117 2115 2111 2109 2103 2099 2096 2090 2084 2081 2076 2067 2067 2070 2068 2060 2051 2038 2022 2008 1996 1983 1977 1974 1969 1962 1958 1952 1946 1944 1943 1943 1944 1945 1945 1946 1946 1945 1945 1946 1946 1944 1945 1947 1946 1946 1951 1958 1966 1973 1979 1983 1991 1999 2003 2006 2010 2013 2013 2014 2014 2012 2011 2012 2010 2006 2005 2002 1996 1991 1983 1976 1970 1966 1958 1951 1949 1948 1948 1946 1943 1942 1946 1951 1948 1947 1949 1948 1947 1945 1944 1945 1948 1948 1947 1949 1948 1947 1946 1944 1939 1933 1919 1898 1880 1868 1863 1878 1925 1981 2025 2073 2137 2202 2263 2325 2379 2428 2469 2492 2484 2450 2403 2345 2284 2220 2148 2070 2001 1933 1866 1808 1766 1757 1785 1823 1848 1875 1913 1941 1949 1952 1959 1960 1954 1953 1953 1952 1955 1955 1952 1954 1962 1968 1972 1979 1982 1978 1973 1967 1965 1973 1986 1999 2008 2012 2010 2002 1996 1992 1993 2005 2022 2032 2036 2036 2029 2022 2021 2028 2034 2043 2051 2055 2055 2053 2050 2050 2053 2057 2064 2074 2084 2089 2094 2103 2107 2110 2116 2117 2115 2111 2109 2103 2099 2096 2090 2084 2081 2076 2067 2067 2070 2068 2060 2051 2038 2022 2008 1996 1983 1977 1974 1969 1962 1958 1952 1946 1944 1943 1943 1944 1945 1945 1946 1946 1945 1945 1946 1946 1944 1945 1947 1946 1946 1951 1958 1966 1973 1979 1983 1991 1999 2003 2006 2010 2013 2013 2014 2014 2012 2011 2012 2010 2006 2005 2002 1996 1991 1983 1976 1970 1966 1958 1951 1949 1948 1948 1946 1943 1942 1946 1951 1948 1947 1949 1948 1947 1945 1944 1945 1948 1948 1947 1949 1948 1947 1946 1944 1939 1933 1919 1898 1880 1868 1863 1878 1925 1981 2025 2073 2137 2202 2263 2325 2379 2428 2469 2492 2484 2450 2403 2345 2284 2220 2148 2070 2001 1933 1866 1808 1766 1757 1785 1823 1848 1875 1913 1941 1949 1952 1959 1960 1954 1953 1953 1952 1955 1955 1952 1954 1962 1968 1972 1979 1982 1978 1973 1967 1965 1973 1986 1999 2008 2012 2010 2002 1996 1992 1993 2005 2022 2032 2036 2036 2029 2022 2021 2028 2034 2043 2051 2055 2055 2053 2050 2050 2053 2057 2064 2074 2084 2089 2094 2103 2107 2110 2116 2117 2115 2111 2109 2103 2099 2096 2090 2084 2081 2076 2067 2067 2070 2068 2060 2051 2038 2022 2008 1996 1983 1977 1974 1969 1962 1958 1952 1946 1944 1943 1943 1944 1945 1945 1946 1946 1945 1945 1946 1946 1944 1945 1947 1946 1946 1951 1958 1966 1973 1979 1983 1991 1999 2003 2006 2010 2013 2013 2014 2014 2012 2011 2012 2010 2006 2005 2002 1996 1991 1983 1976 1970 1966 1958 1951 1949 1948 1948 1946 1943 1942 1946 1951 1948 1947 1949 1948 1947 1945 1944 1945 1948 1948 1947 1949 1948 1947 1946 1944 1939 1933 1919 1898 1880 1868 1863 1878 1925 1981 2025 2073 2137 2202 2263 2325 2379 2428 2469 2492 2484 2450 2403 2345 2284 2220 2148 2070 2001 1933 1866 1808 1766 1757 1785 1823 1848 1875 1913 1941 1949 1952 1959 1960 1954 1953 1953 1952 1955 1955 1952 1954 1962 1968 1972 1979 1982 1978 1973 1967 1965 1973 1986 1999 2008 2012 2010 2002 1996 1992 1993 2005 2022 2032 2036 2036 2029 2022 2021 2028 2034 2043 2051 2055 2055 2053 2050 2050 2053 2057 2064 2074 2084 2089 2094 2103 2107 2110 2116 2117 2115 2111 2109 2103 2099 2096 2090 2084 2081 2076 2067 2067 2070 2068 2060 2051 2038 2022 2008 1996 1983 1977 1974 1969 1962 1958 1952 1946 1944 1943 1943 1944 1945 1945 1946 1946 1945 1945 1946 1946 1944 1945 1947 1946 1946 1951 1958 1966 1973 1979 1983 1991 1999 2003 2006 2010 2013 2013 2014 2014 2012 2011 2012 2010 2006 2005 2002 1996 1991 1983 1976 1970 1966 1958 1951 1949 1948 1948 1946 1943 1942 1946 1951 1948 1947 1949 1948 1947 1945 1944 1945 1948 1948 1947 1949 1948 1947 1946 1944 1939 1933 1919 1898 1880 1868 1863 1878 1925 1981 2025 2073 2137 2202 2263 2325 2379 2428 2469 2492 2484 2450 2403 2345 2284 2220 2148 2070 2001 1933 1866 1808 1766 1757 1785 1823 1848 1875 1913 1941 1949 1952 1959 1960 1954 1953 1953 1952 1955 1955 1952 1954 1962 1968 1972 1979 1982 1978 1973 1967 1965 1973 1986 1999 2008 2012 2010 2002 1996 1992 1993 2005 2022 2032 2036 2036 2029 2022 2021 2028 2034 2043 2051 2055 2055 2053 2050 2050 2053 2057 2064 2074 2084 2089 2094 2103 2107 2110 2116 2117 2115 2111 2109 2103 2099 2096 2090 2084 2081 2076 2067 2067 2070 2068 2060 2051 2038 2022 2008 1996 1983 1977 1974 1969 1962 1958 1952 1946 1944 1943 1943 1944 1945 1945 1946 1946 1945 1945 1946 1946 1944 1945 1947 1946 1946 1951 1958 1966 1973 1979 1983 1991 1999 2003 2006 2010 2013 2013 2014 2014 2012 2011 2012 2010 2006 2005 2002 1996 1991 1983 1976 1970 1966 1958 1951 1949 1948 1948 1946 1943 1942 1946 1951 1948 1947 1949 1948 1947 1945 1944 1945 1948 1948 1947 1949 1948 1947 1946 1944 1939 1933 1919 1898 1880 1868 1863 1878 1925 1981 2025 2073 2137 2202 2263 2325 2379 2428 2469 2492 2484 2450 2403 2345 2284 2220 2148 2070 2001 1933 1866 1808 1766 1757 1785 1823 1848 1875 1913 1941 1949 1952 1959 1960 1954 1953 1953 1952 1955 1955 1952 1954 1962 1968 1972 1979 1982 1978 1973 1967 1965 1973 1986 1999 2008 2012 2010 2002 1996 1992 1993 2005 2022 2032 2036 2036 2029 2022 2021 2028 2034 2043 2051 2055 2055 2053 2050 2050 2053 2057 2064 2074 2084 2089 2094 2103 2107 2110 2116 2117 2115 2111 2109 2103 2099 2096 2090 2084 2081 2076 2067 2067 2070 2068 2060 2051 2038 2022 2008 1996 1983 1977 1974 1969 1962 1958 1952 1946 1944 1943 1943 1944 1945 1945 1946 1946 1945 1945 1946 1946 1944 1945 1947 1946 1946 1951 1958 1966 1973 1979 1983 1991 1999 2003 2006 2010 2013 2013 2014 2014 2012 2011 2012 2010 2006 2005 2002 1996 1991 1983 1976 1970 1966 1958 1951 1949 1948 1948 1946 1943 1942 1946 1951 1948 1947 1949 1948 1947 1945 1944 1945 1948 1948 1947 1949 1948 1947 1946 1944 1939 1933 1919 1898 1880 1868 1863 1878 1925 1981 2025 2073 2137 2202 2263 2325 2379 2428 2469 2492 2484 2450 2403 2345 2284 2220 2148 2070 2001 1933 1866 1808 1766 1757 1785 1823 1848 1875 1913 1941 1949 1952 1959 1960 1954 1953 1953 1952 1955 1955 1952 1954 1962 1968 1972 1979 1982 1978 1973 1967 1965 1973 1986 1999 2008 2012 2010 2002 1996 1992 1993 2005 2022 2032 2036 2036 2029 2022 2021 2028 2034 2043 2051 2055 2055 2053 2050 2050 2053 2057 2064 2074 2084 2089 2094 2103 2107 2110 2116 2117 2115 2111 2109 2103 2099 2096 2090 2084 2081 2076 2067 2067 2070 2068 2060 2051 2038 2022 2008 1996 1983 1977 1974 1969 1962 1958 1952 1946 1944 1943 1943 1944 1945 1945 1946 1946 1945 1945 1946 1946 1944 1945 1947 1946 1946 1951 1958 1966 1973 1979 1983 1991 1999 2003 2006 2010 2013 2013 2014 2014 2012 2011 2012 2010 2006 2005 2002 1996 1991 1983 1976 1970 1966 1958 1951 1949 1948 1948 1946 1943 1942 1946 1951 1948 1947 1949 1948 1947 1945 1944 1945 1948 1948 1947 1949 1948 1947 1946 1944 1939 1933 1919 1898 1880 1868 1863 1878 1925 1981 2025 2073 2137 2202 2263 2325 2379 2428 2469 2492 2484 2450 2403 2345 2284 2220 2148 2070 2001 1933 1866 1808 1766 1757 1785 1823 1848 1875 1913 1941 1949 1952 1959 1960 1954 1953 1953 1952 1955 1955 1952 1954 1962 1968 1972 1979 1982 1978 1973 1967 1965 1973 1986 1999 2008 2012 2010 2002 1996 1992 1993 2005 2022 2032 2036 2036 2029 2022 2021 2028 2034 2043 2051 2055 2055 2053 2050 2050 2053 2057 2064 2074 2084 2089 2094 2103 2107 2110 2116 2117 2115 2111 2109 2103 2099 2096 2090 2084 2081 2076 2067 2067 2070 2068 2060 2051 2038 2022 2008 1996 1983 1977 1974 1969 1962 1958 1952 1946 1944 1943 1943 1944 1945 1945 1946 1946 1945 1945 1946 1946 1944 1945 1947 1946 1946 1951 1958 1966 1973 1979 1983 1991 1999 2003 2006 2010 2013 2013 2014 2014 2012 2011 2012 2010 2006 2005 2002 1996 1991 1983 1976 1970 1966 1958 1951 1949 1948 1948 1946 1943 1942 1946 1951 1948 1947 1949 1948 1947 1945 1944 1945 1948 1948 1947 1949 1948 1947 1946 1944 1939 1933 1919 1898 1880 1868 1863 1878 1925 1981 2025 2073 2137 2202 2263 2325 2379 2428 2469 2492 2484 2450 2403 2345 2284 2220 2148 2070 2001 1933 1866 1808 1766 1757 1785 1823 1848 1875 1913 1941 1949 1952 1959 1960 1954 1953 1953 1952 1955 1955 1952 1954 1962 1968 1972 1979 1982 1978 1973 1967 1965 1973 1986 1999 2008 2012 2010 2002 1996 1992 1993 2005 2022 2032 2036 2036 2029 2022 2021 2028 2034 2043 2051 2055 2055 2053 2050 2050 2053 2057 2064 2074 2084 2089 2094 2103 2107 2110 2116 2117 2115 2111 2109 2103 2099 2096 2090 2084 2081 2076 2067 2067 2070 2068 2060 2051 2038 2022 2008 1996 1983 1977 1974 1969 1962 1958 1952 1946 1944 1943 1943 1944 1945 1945 1946 1946 1945 1945 1946 1946 1944 1945 1947 1946 1946 1951 1958 1966 1973 1979 1983 1991 1999 2003 2006 2010 2013 2013 2014 2014 2012 2011 2012 2010 2006 2005 2002 1996 1991 1983 1976 1970 1966 1958 1951 1949 1948 1948 1946 1943 1942 1946 1951 1948 1947 1949 1948 1947 1945 1944 1945 1948 1948 1947 1949 1948 1947 1946 1944 1939 1933 1919 1898 1880 1868 1863 1878 1925 1981 2025 2073 2137 2202 2263 2325 2379 2428 2469 2492 2484 2450 2403 2345 2284 2220 2148 2070 2001 1933 1866 1808 1766 1757 1785 1823 1848 1875 1913 1941 1949 1952 1959 1960 1954 1953 1953 1952 1955 1955 1952 1954 1962 1968 1972 1979 1982 1978 1973 1967 1965 1973 1986 1999 2008 2012 2010 2002 1996 1992 1993 2005 2022 2032 2036 2036 2029 2022 2021 2028 2034 2043 2051 2055 2055 2053 2050 2050 2053 2057 2064 2074 2084 2089 2094 2103 2107 2110 2116 2117 2115 2111 2109 2103 2099 2096 2090 2084 2081 2076 2067 2067 2070 2068 2060 2051 2038 2022 2008 1996 1983 1977 1974 1969 1962 1958 1952 1946 1944 1943 1943 1944 1945 1945 1946 1946 1945 1945 1946 1946 1944 1945 1947 1946 1946 1951 1958 1966 1973 1979 1983 1991 1999 2003 2006 2010 2013 2013 2014 2014 2012 2011 2012 2010 2006 2005 2002 1996 1991 1983 1976 1970 1966 1958 1951 1949 1948 1948 1946 1943 1942 1946 1951 1948 1947 1949 1948 1947 1945 1944 1945 1948 1948 1947 1949 1948 1947 1946 1944 1939 1933 1919 1898 1880 1868 1863 1878 1925 1981 2025 2073 2137 2202 2263 2325 2379 2428 2469 2492 2484 2450 2403 2345 2284 2220 2148 2070 2001 1933 1866 1808 1766 1757 1785 1823 1848 1875 1913 1941 1949 1952 1959 1960 1954 1953 1953 1952 1955 1955 1952 1954 1962 1968 1972 1979 1982 1978 1973 1967 1965 1973 1986 1999 2008 2012 2010 2002 1996 1992 1993 2005 2022 2032 2036 2036 2029 2022 2021 2028 2034 2043 2051 2055 2055 2053 2050 2050 2053 2057 2064 2074 2084 2089 2094 2103 2107 2110 2116 2117 2115 2111 2109 2103 2099 2096 2090 2084 2081 2076 2067 2067 2070 2068 2060 2051 2038 2022 2008 1996 1983 1977 1974 1969 1962 1958 1952 1946 1944 1943 1943 1944 1945 1945 1946 1946 1945 1945 1946 1946 1944 1945 1947 1946 1946 1951 1958 1966 1973 1979 1983 1991 1999 2003 2006 2010 2013 2013 2014 2014 2012 2011 2012 2010 2006 2005 2002 1996 1991 1983 1976 1970 1966 1958 1951 1949 1948 1948 1946 1943 1942 1946 1951 1948 1947 1949 1948 1947 1945 1944 1945 1948 1948 1947 1949 1948 1947 1946 1944 1939 1933 1919 1898 1880 1868 1863 1878 1925 1981 2025 2073 2137 2202 2263 2325 2379 2428 2469 2492 2484 2450 2403 2345 2284 2220 2148 2070 2001 1933 1866 1808 1766 1757 1785 1823 1848 1875 1913 1941 1949 1952 1959 1960 1954 1953 1953 1952 1955 1955 1952 1954 1962 1968 1972 1979 1982 1978 1973 1967 1965 1973 1986 1999 2008 2012 2010 2002 1996 1992 1993 2005 2022 2032 2036 2036 2029 2022 2021 2028 2034 2043 2051 2055 2055 2053 2050 2050 2053 2057 2064 2074 2084 2089 2094 2103 2107 2110 2116 2117 2115 2111 2109 2103 2099 2096 2090 2084 2081 2076 2067 2067 2070 2068 2060 2051 2038 2022 2008 1996 1983 1977 1974 1969 1962 1958 1952 1946 1944 1943 1943 1944 1945 1945 1946 1946 1945 1945 1946 1946 1944 1945 1947 1946 1946 1951 1958 1966 1973 1979 1983 1991 1999 2003 2006 2010 2013 2013 2014 2014 2012 2011 2012 2010 2006 2005 2002 1996 1991 1983 1976 1970 1966 1958 1951 1949 1948 1948 1946 1943 1942 1946 1951 1948 1947 1949 1948 1947 1945 1944 1945 1948 1948 1947 1949 1948 1947 1946 1944 1939 1933 1919 1898 1880 1868 1863 1878 1925 1981 2025 2073 2137 2202 2263 2325 2379 2428 2469 2492 2484 2450 2403 2345 2284 2220 2148 2070 2001 1933 1866 1808 1766 1757 1785 1823 1848 1875 1913 1941 1949 1952 1959 1960 1954 1953 1953 1952 1955 1955 1952 1954 1962 1968 1972 1979 1982 1978 1973 1967 1965 1973 1986 1999 2008 2012 2010 2002 1996 1992 1993 2005 2022 2032 2036 2036 2029 2022 2021 2028 2034 2043 2051 2055 2055 2053 2050 2050 2053 2057 2064 2074 2084 2089 2094 2103 2107 2110 2116 2117 2115 2111 2109 2103 2099 2096 2090 2084 2081 2076 2067 2067 2070 2068 2060 2051 2038 2022 2008 1996 1983 1977 1974 1969 1962 1958 1952 1946 1944 1943 1943 1944 1945 1945 1946 1946 1945 1945 1946 1946 1944 1945 1947 1946 1946 1951 1958 1966 1973 1979 1983 1991 1999 2003 2006 2010 2013 2013 2014 2014 2012 2011 2012 2010 2006 2005 2002 1996 1991 1983 1976 1970 1966 1958 1951 1949 1948 1948 1946 1943 1942 1946 1951 1948 1947 1949 1948 1947 1945 1944 1945 1948 1948 1947 1949 1948 1947 1946 1944 1939 1933 1919 1898 1880 1868 1863 1878 1925 1981 2025 2073 2137 2202 2263 2325 2379 2428 2469 2492 2484 2450 2403 2345 2284 2220 2148 2070 2001 1933 1866 1808 1766 1757 1785 1823 1848 1875 1913 1941 1949 1952 1959 1960 1954 1953 1953 1952 1955 1955 1952 1954 1962 1968 1972 1979 1982 1978 1973 1967 1965 1973 1986 1999 2008 2012 2010 2002 1996 1992 1993 2005 2022 2032 2036 2036 2029 2022 2021 2028 2034 2043 2051 2055 2055 2053 2050 2050 2053 2057 2064 2074 2084 2089 2094 2103 2107 2110 2116 2117 2115 2111 2109 2103 2099 2096 2090 2084 2081 2076 2067 2067 2070 2068 2060 2051 2038 2022 2008 1996 1983 1977 1974 1969 1962 1958 1952 1946 1944 1943 1943 1944 1945 1945 1946 1946 1945 1945 1946 1946 1944 1945 1947 1946 1946 1951 1958 1966 1973 1979 1983 1991 1999 2003 2006 2010 2013 2013 2014 2014 2012 2011 2012 2010 2006 2005 2002 1996 1991 1983 1976 1970 1966 1958 1951 1949 1948 1948 1946 1943 1942 1946 1951 1948 1947 1949 1948 1947 1945 1944 1945 1948 1948 1947 1949 1948 1947 1946 1944 1939 1933 1919 1898 1880 1868 1863 1878 1925 1981 2025 2073 2137 2202 2263 2325 2379 2428 2469 2492 2484 2450 2403 2345 2284 2220 2148 2070 2001 1933 1866 1808 1766 1757 1785 1823 1848 1875 1913 1941 1949 1952 1959 1960 1954 1953 1953 1952 1955 1955 1952 1954 1962 1968 1972 1979 1982 1978 1973 1967 1965 1973 1986 1999 2008 2012 2010 2002 1996 1992 1993 2005 2022 2032 2036 2036 2029 2022 2021 2028 2034 2043 2051 2055 2055 2053 2050 2050 2053 2057 2064 2074 2084 2089 2094 2103 2107 2110 2116 2117 2115 2111 2109 2103 2099 2096 2090 2084 2081 2076 2067 2067 2070 2068 2060 2051 2038 2022 2008 1996 1983 1977 1974 1969 1962 1958 1952 1946 1944 1943 1943 1944 1945 1945 1946 1946 1945 1945 1946 1946 1944 1945 1947 1946 1946 1951 1958 1966 1973 1979 1983 1991 1999 2003 2006 2010 2013 2013 2014 2014 2012 2011 2012 2010 2006 2005 2002 1996 1991 1983 1976 1970 1966 1958 1951 1949 1948 1948 1946 1943 1942 1946 1951 1948 1947 1949 1948 1947 1945 1944 1945 1948 1948 1947 1949 1948 1947 1946 1944 1939 1933 1919 1898 1880 1868 1863 1878 1925 1981 2025 2073 2137 2202 2263 2325 2379 2428 2469 2492 2484 2450 2403 2345 2284 2220 2148 2070 2001 1933 1866 1808 1766 1757 1785 1823 1848 1875 1913 1941 1949 1952 1959 1960 1954 1953 1953 1952 1955 1955 1952 1954 1962 1968 1972 1979 1982 1978 1973 1967 1965 1973 1986 1999 2008 2012 2010 2002 1996 1992 1993 2005 2022 2032 2036 2036 2029 2022 2021 2028 2034 2043 2051 2055 2055 2053 2050 2050 2053 2057 2064 2074 2084 2089 2094 2103 2107 2110 2116 2117 2115 2111 2109 2103 2099 2096 2090 2084 2081 2076 2067 2067 2070 2068 2060 2051 2038 2022 2008 1996 1983 1977 1974 1969 1962 1958 1952 1946 1944 1943 1943 1944 1945 1945 1946 1946 1945 1945 1946 1946 1944 1945 1947 1946 1946 1951 1958 1966 1973 1979 1983 1991 1999 2003 2006 2010 2013 2013 2014 2014 2012 2011 2012 2010 2006 2005 2002 1996 1991 1983 1976 1970 1966 1958 1951 1949 1948 1948 1946 1943 1942 1946 1951 1948 1947 1949 1948 1947 1945 1944 1945 1948 1948 1947 1949 1948 1947 1946 1944 1939 1933 1919 1898 1880 1868 1863 1878 1925 1981 2025 2073 2137 2202 2263 2325 2379 2428 2469 2492 2484 2450 2403 2345 2284 2220 2148 2070 2001 1933 1866 1808 1766 1757 1785 1823 1848 1875 1913 1941 1949 1952 1959 1960 1954 1953 1953 1952 1955 1955 1952 1954 1962 1968 1972 1979 1982 1978 1973 1967 1965 1973 1986 1999 2008 2012 2010 2002 1996 1992 1993 2005 2022 2032 2036 2036 2029 2022 2021 2028 2034 2043 2051 2055 2055 2053 2050 2050 2053 2057 2064 2074 2084 2089 2094 2103 2107 2110 2116 2117 2115 2111 2109 2103 2099 2096 2090 2084 2081 2076 2067 2067 2070 2068 2060 2051 2038 2022 2008 1996 1983 1977 1974 1969 1962 1958 1952 1946 1944 1943 1943 1944 1945 1945 1946 1946 1945 1945 1946 1946 1944 1945 1947 1946 1946 1951 1958 1966 1973 1979 1983 1991 1999 2003 2006 2010 2013 2013 2014 2014 2012 2011 2012 2010 2006 2005 2002 1996 1991 1983 1976 1970 1966 1958 1951 1949 1948 1948 1946 1943 1942 1946 1951 1948 1947 1949 1948 1947 1945 1944 1945 1948 1948 1947 1949 1948 1947 1946 1944 1939 1933 1919 1898 1880 1868 1863 1878 1925 1981 2025 2073 2137 2202 2263 2325 2379 2428 2469 2492 2484 2450 2403 2345 2284 2220 2148 2070 2001 1933 1866 1808 1766 1757 1785 1823 1848 1875 1913 1941 1949 1952 1959 1960 1954 1953 1953 1952 1955 1955 1952 1954 1962 1968 1972 1979 1982 1978 1973 1967 1965 1973 1986 1999 2008 2012 2010 2002 1996 1992 1993 2005 2022 2032 2036 2036 2029 2022 2021 2028 2034 2043 2051 2055 2055 2053 2050 2050 2053 2057 2064 2074 2084 2089 2094 2103 2107 2110 2116 2117 2115 2111 2109 2103 2099 2096 2090 2084 2081 2076 2067 2067 2070 2068 2060 2051 2038 2022 2008 1996 1983 1977 1974 1969 1962 1958 1952 1946 1944 1943 1943 1944 1945 1945 1946 1946 1945 1945 1946 1946 1944 1945 1947 1946 1946 1951 1958 1966 1973 1979 1983 1991 1999 2003 2006 2010 2013 2013 2014 2014 2012 2011 2012 2010 2006 2005 2002 1996 1991 1983 1976 1970 1966 1958 1951 1949 1948 1948 1946 1943 1942 1946 1951 1948 1947 1949 1948 1947 1945 1944 1945 1948 1948 1947 1949 1948 1947 1946 1944 1939 1933 1919 1898 1880 1868 1863 1878 1925 1981 2025 2073 2137 2202 2263 2325 2379 2428 2469 2492 2484 2450 2403 2345 2284 2220 2148 2070 2001 1933 1866 1808 1766 1757 1785 1823 1848 1875 1913 1941 1949 1952 1959 1960 1954 1953 1953 1952 1955 1955 1952 1954 1962 1968 1972 1979 1982 1978 1973 1967 1965 1973 1986 1999 2008 2012 2010 2002 1996 1992 1993 2005 2022 2032 2036 2036 2029 2022 2021 2028 2034 2043 2051 2055 2055 2053 2050 2050 2053 2057 2064 2074 2084 2089 2094 2103 2107 2110 2116 2117 2115 2111 2109 2103 2099 2096 2090 2084 2081 2076 2067 2067 2070 2068 2060 2051 2038 2022 2008 1996 1983 1977 1974 1969 1962 1958 1952 1946 1944 1943 1943 1944 1945 1945 1946 1946 1945 1945 1946 1946 1944 1945 1947 1946 1946 1951 1958 1966 1973 1979 1983 1991 1999 2003 2006 2010 2013 2013 2014 2014 2012 2011 2012 2010 2006 2005 2002 1996 1991 1983 1976 1970 1966 1958 1951 1949 1948 1948 1946 1943 1942 1946 1951 1948 1947 1949 1948 1947 1945 1944 1945 1948 1948 1947 1949 1948 1947 1946 1944 1939 1933 1919 1898 1880 1868 1863 1878 1925 1981 2025 2073 2137 2202 2263 2325 2379 2428 2469 2492 2484 2450 2403 2345 2284 2220 2148 2070 2001 1933 1866 1808 1766 1757 1785 1823 1848 1875 1913 1941 1949 1952 1959 1960 1954 1953 1953 1952 1955 1955 1952 1954 1962 1968 1972 1979 1982 1978 1973 1967 1965 1973 1986 1999 2008 2012 2010 2002 1996 1992 1993 2005 2022 2032 2036 2036 2029 2022 2021 2028 2034 2043 2051 2055 2055 2053 2050 2050 2053 2057 2064 2074 2084 2089 2094 2103 2107 2110 2116 2117 2115 2111 2109 2103 2099 2096 2090 2084 2081 2076 2067 2067 2070 2068 2060 2051 2038 2022 2008 1996 1983 1977 1974 1969 1962 1958 1952 1946 1944 1943 1943 1944 1945 1945 1946 1946 1945 1945 1946 1946 1944 1945 1947 1946 1946 1951 1958 1966 1973 1979 1983 1991 1999 2003 2006 2010 2013 2013 2014 2014 2012 2011 2012 2010 2006 2005 2002 1996 1991 1983 1976 1970 1966 1958 1951 1949 1948 1948 1946 1943 1942 1946 1951 1948 1947 1949 1948 1947 1945 1944 1945 1948 1948 1947 1949 1948 1947 1946 1944 1939 1933 1919 1898 1880 1868 1863 1878 1925 1981 2025 2073 2137 2202 2263 2325 2379 2428 2469 2492 2484 2450 2403 2345 2284 2220 2148 2070 2001 1933 1866 1808 1766 1757 1785 1823 1848 1875 1913 1941 1949 1952 1959 1960 1954 1953 1953 1952 1955 1955 1952 1954 1962 1968 1972 1979 1982 1978 1973 1967 1965 1973 1986 1999 2008 2012 2010 2002 1996 1992 1993 2005 2022 2032 2036 2036 2029 2022 2021 2028 2034 2043 2051 2055 2055 2053 2050 2050 2053 2057 2064 2074 2084 2089 2094 2103 2107 2110 2116 2117 2115 2111 2109 2103 2099 2096 2090 2084 2081 2076 2067 2067 2070 2068 2060 2051 2038 2022 2008 1996 1983 1977 1974 1969 1962 1958 1952 1946 1944 1943 1943 1944 1945 1945 1946 1946 1945 1945 1946 1946 1944 1945 1947 1946 1946 1951 1958 1966 1973 1979 1983 1991 1999 2003 2006 2010 2013 2013 2014 2014 2012 2011 2012 2010 2006 2005 2002 1996 1991 1983 1976 1970 1966 1958 1951 1949 1948 1948 1946 1943 1942 1946 1951 1948 1947 1949 1948 1947 1945 1944 1945 1948 1948 1947 1949 1948 1947 1946 1944 1939 1933 1919 1898 1880 1868 1863 1878 1925 1981 2025 2073 2137 2202 2263 2325 2379 2428 2469 2492 2484 2450 2403 2345 2284 2220 2148 2070 2001 1933 1866 1808 1766 1757 1785 1823 1848 1875 1913 1941 1949 1952 1959 1960 1954 1953 1953 1952 1955 1955 1952 1954 1962 1968 1972 1979 1982 1978 1973 1967 1965 1973 1986 1999 2008 2012 2010 2002 1996 1992 1993 2005 2022 2032 2036 2036 2029 2022 2021 2028 2034 2043 2051 2055 2055 2053 2050 2050 2053 2057 2064 2074 2084 2089 2094 2103 2107 2110 2116 2117 2115 2111 2109 2103 2099 2096 2090 2084 2081 2076 2067 2067 2070 2068 2060 2051 2038 2022 2008 1996 1983 1977 1974 1969 1962 1958 1952 1946 1944 1943 1943 1944 1945 1945 1946 1946 1945 1945 1946 1946 1944 1945 1947 1946 1946 1951 1958 1966 1973 1979 1983 1991 1999 2003 2006 2010 2013 2013 2014 2014 2012 2011 2012 2010 2006 2005 2002 1996 1991 1983 1976 1970 1966 1958 1951 1949 1948 1948 1946 1943 1942 1946 1951 1948 1947 1949 1948 1947 1945 1944 1945 1948 1948 1947 1949 1948 1947 1946 1944 1939 1933 1919 1898 1880 1868 1863 1878 1925 1981 2025 2073 2137 2202 2263 2325 2379 2428 2469 2492 2484 2450 2403 2345 2284 2220 2148 2070 2001 1933 1866 1808 1766 1757 1785 1823 1848 1875 1913 1941 1949 1952 1959 1960 1954 1953 1953 1952 1955 1955 1952 1954 1962 1968 1972 1979 1982 1978 1973 1967 1965 1973 1986 1999 2008 2012 2010 2002 1996 1992 1993 2005 2022 2032 2036 2036 2029 2022 2021 2028 2034 2043 2051 2055 2055 2053 2050 2050 2053 2057 2064 2074 2084 2089 2094 2103 2107 2110 2116 2117 2115 2111 2109 2103 2099 2096 2090 2084 2081 2076 2067 2067 2070 2068 2060 2051 2038 2022 2008 1996 1983 1977 1974 1969 1962 1958 1952 1946 1944 1943 1943 1944 1945 1945 1946 1946 1945 1945 1946 1946 1944 1945 1947 1946 1946 1951 1958 1966 1973 1979 1983 1991 1999 2003 2006 2010 2013 2013 2014 2014 2012 2011 2012 2010 2006 2005 2002 1996 1991 1983 1976 1970 1966 1958 1951 1949 1948 1948 1946 1943 1942 1946 1951 1948 1947 1949 1948 1947 1945 1944 1945 1948 1948 1947 1949 1948 1947 1946 1944 1939 1933 1919 1898 1880 1868 1863 1878 1925 1981 2025 2073 2137 2202 2263 2325 2379 2428 2469 2492 2484 2450 2403 2345 2284 2220 2148 2070 2001 1933 1866 1808 1766 1757 1785 1823 1848 1875 1913 1941 1949 1952 1959 1960 1954 1953 1953 1952 1955 1955 1952 1954 1962 1968 1972 1979 1982 1978 1973 1967 1965 1973 1986 1999 2008 2012 2010 2002 1996 1992 1993 2005 2022 2032 2036 2036 2029 2022 2021 2028 2034 2043 2051 2055 2055 2053 2050 2050 2053 2057 2064 2074 2084 2089 2094 2103 2107 2110 2116 2117 2115 2111 2109 2103 2099 2096 2090 2084 2081 2076 2067 2067 2070 2068 2060 2051 2038 2022 2008 1996 1983 1977 1974 1969 1962 1958 1952 1946 1944 1943 1943 1944 1945 1945 1946 1946 1945 1945 1946 1946 1944 1945 1947 1946 1946 1951 1958 1966 1973 1979 1983 1991 1999 2003 2006 2010 2013 2013 2014 2014 2012 2011 2012 2010 2006 2005 2002 1996 1991 1983 1976 1970 1966 1958 1951 1949 1948 1948 1946 1943 1942 1946 1951 1948 1947 1949 1948 1947 1945 1944 1945 1948 1948 1947 1949 1948 1947 1946 1944 1939 1933 1919 1898 1880 1868 1863 1878 1925 1981 2025 2073 2137 2202 2263 2325 2379 2428 2469 2492 2484 2450 2403 2345 2284 2220 2148 2070 2001 1933 1866 1808 1766 1757 1785 1823 1848 1875 1913 1941 1949 1952 1959 1960 1954 1953 1953 1952 1955 1955 1952 1954 1962 1968 1972 1979 1982 1978 1973 1967 1965 1973 1986 1999 2008 2012 2010 2002 1996 1992 1993 2005 2022 2032 2036 2036 2029 2022 2021 2028 2034 2043 2051 2055 2055 2053 2050 2050 2053 2057 2064 2074 2084 2089 2094 2103 2107 2110 2116 2117 2115 2111 2109 2103 2099 2096 2090 2084 2081 2076 2067 2067 2070 2068 2060 2051 2038 2022 2008 1996 1983 1977 1974 1969 1962 1958 1952 1946 1944 1943 1943 1944 1945 1945 1946 1946 1945 1945 1946 1946 1944 1945 1947 1946 1946 1951 1958 1966 1973 1979 1983 1991 1999 2003 2006 2010 2013 2013 2014 2014 2012 2011 2012 2010 2006 2005 2002 1996 1991 1983 1976 1970 1966 1958 1951 1949 1948 1948 1946 1943 1942 1946 1951 1948 1947 1949 1948 1947 1945 1944 1945 1948 1948 1947 1949 1948 1947 1946 1944 1939 1933 1919 1898 1880 1868 1863 1878 1925 1981 2025 2073 2137 2202 2263 2325 2379 2428 2469 2492 2484 2450 2403 2345 2284 2220 2148 2070 2001 1933 1866 1808 1766 1757 1785 1823 1848 1875 1913 1941 1949 1952 1959 1960 1954 1953 1953 1952 1955 1955 1952 1954 1962 1968 1972 1979 1982 1978 1973 1967 1965 1973 1986 1999 2008 2012 2010 2002 1996 1992 1993 2005 2022 2032 2036 2036 2029 2022 2021 2028 2034 2043 2051 2055 2055 2053 2050 2050 2053 2057 2064 2074 2084 2089 2094 2103 2107 2110 2116 2117 2115 2111 2109 2103 2099 2096 2090 2084 2081 2076 2067 2067 2070 2068 2060 2051 2038 2022 2008 1996 1983 1977 1974 1969 1962 1958 1952 1946 1944 1943 1943 1944 1945 1945 1946 1946 1945 1945 1946 1946 1944 1945 1947 1946 1946 1951 1958 1966 1973 1979 1983 1991 1999 2003 2006 2010 2013 2013 2014 2014 2012 2011 2012 2010 2006 2005 2002 1996 1991 1983 1976 1970 1966 1958 1951 1949 1948 1948 1946 1943 1942 1946 1951 1948 1947 1949 1948 1947 1945 1944 1945 1948 1948 1947 1949 1948 1947 1946 1944 1939 1933 1919 1898 1880 1868 1863 1878 1925 1981 2025 2073 2137 2202 2263 2325 2379 2428 2469 2492 2484 2450 2403 2345 2284 2220 2148 2070 2001 1933 1866 1808 1766 1757 1785 1823 1848 1875 1913 1941 1949 1952 1959 1960 1954 1953 1953 1952 1955 1955 1952 1954 1962 1968 1972 1979 1982 1978 1973 1967 1965 1973 1986 1999 2008 2012 2010 2002 1996 1992 1993 2005 2022 2032 2036 2036 2029 2022 2021 2028 2034 2043 2051 2055 2055 2053 2050 2050 2053 2057 2064 2074 2084 2089 2094 2103 2107 2110 2116 2117 2115 2111 2109 2103 2099 2096 2090 2084 2081 2076 2067 2067 2070 2068 2060 2051 2038 2022 2008 1996 1983 1977 1974 1969 1962 1958 1952 1946 1944 1943 1943 1944 1945 1945 1946 1946 1945 1945 1946 1946 1944 1945 1947 1946 1946 1951 1958 1966 1973 1979 1983 1991 1999 2003 2006 2010 2013 2013 2014 2014 2012 2011 2012 2010 2006 2005 2002 1996 1991 1983 1976 1970 1966 1958 1951 1949 1948 1948 1946 1943 1942 1946 1951 1948 1947 1949 1948 1947 1945 1944 1945 1948 1948 1947 1949 1948 1947 1946 1944 1939 1933 1919 1898 1880 1868 1863 1878 1925 1981 2025 2073 2137 2202 2263 2325 2379 2428 2469 2492 2484 2450 2403 2345 2284 2220 2148 2070 2001 1933 1866 1808 1766 1757 1785 1823 1848 1875 1913 1941 1949 1952 1959 1960 1954 1953 1953 1952 1955 1955 1952 1954 1962 1968 1972 1979 1982 1978 1973 1967 1965 1973 1986 1999 2008 2012 2010 2002 1996 1992 1993 2005 2022 2032 2036 2036 2029 2022 2021 2028 2034 2043 2051 2055 2055 2053 2050 2050 2053 2057 2064 2074 2084 2089 2094 2103 2107 2110 2116 2117 2115 2111 2109 2103 2099 2096 2090 2084 2081 2076 2067 2067 2070 2068 2060 2051 2038 2022 2008 1996 1983 1977 1974 1969 1962 1958 1952 1946 1944 1943 1943 1944 1945 1945 1946 1946 1945 1945 1946 1946 1944 1945 1947 1946 1946 1951 1958 1966 1973 1979 1983 1991 1999 2003 2006 2010 2013 2013 2014 2014 2012 2011 2012 2010 2006 2005 2002 1996 1991 1983 1976 1970 1966 1958 1951 1949 1948 1948 1946 1943 1942 1946 1951 1948 1947 1949 1948 1947 1945 1944 1945 1948 1948 1947 1949 1948 1947 1946 1944 1939 1933 1919 1898 1880 1868 1863 1878 1925 1981 2025 2073 2137 2202 2263 2325 2379 2428 2469 2492 2484 2450 2403 2345 2284 2220 2148 2070 2001 1933 1866 1808 1766 1757 1785 1823 1848 1875 1913 1941 1949 1952 1959 1960 1954 1953 1953 1952 1955 1955 1952 1954 1962 1968 1972 1979 1982 1978 1973 1967 1965 1973 1986 1999 2008 2012 2010 2002 1996 1992 1993 2005 2022 2032 2036 2036 2029 2022 2021 2028 2034 2043 2051 2055 2055 2053 2050 2050 2053 2057 2064 2074 2084 2089 2094 2103 2107 2110 2116 2117 2115 2111 2109 2103 2099 2096 2090 2084 2081 2076 2067 2067 2070 2068 2060 2051 2038 2022 2008 1996 1983 1977 1974 1969 1962 1958 1952 1946 1944 1943 1943 1944 1945 1945 1946 1946 1945 1945 1946 1946 1944 1945 1947 1946 1946 1951 1958 1966 1973 1979 1983 1991 1999 2003 2006 2010 2013 2013 2014 2014 2012 2011 2012 2010 2006 2005 2002 1996 1991 1983 1976 1970 1966 1958 1951 1949 1948 1948 1946 1943 1942 1946 1951 1948 1947 1949 1948 1947 1945 1944 1945 1948 1948 1947 1949 1948 1947 1946 1944 1939 1933 1919 1898 1880 1868 1863 1878 1925 1981 2025 2073 2137 2202 2263 2325 2379 2428 2469 2492 2484 2450 2403 2345 2284 2220 2148 2070 2001 1933 1866 1808 1766 1757 1785 1823 1848 1875 1913 1941 1949 1952 1959 1960 1954 1953 1953 1952 1955 1955 1952 1954 1962 1968 1972 1979 1982 1978 1973 1967 1965 1973 1986 1999 2008 2012 2010 2002 1996 1992 1993 2005 2022 2032 2036 2036 2029 2022 2021 2028 2034 2043 2051 2055 2055 2053 2050 2050 2053 2057 2064 2074 2084 2089 2094 2103 2107 2110 2116 2117 2115 2111 2109 2103 2099 2096 2090 2084 2081 2076 2067 2067 2070 2068 2060 2051 2038 2022 2008 1996 1983 1977 1974 1969 1962 1958 1952 1946 1944 1943 1943 1944 1945 1945 1946 1946 1945 1945 1946 1946 1944 1945 1947 1946 1946 1951 1958 1966 1973 1979 1983 1991 1999 2003 2006 2010 2013 2013 2014 2014 2012 2011 2012 2010 2006 2005 2002 1996 1991 1983 1976 1970 1966 1958 1951 1949 1948 1948 1946 1943 1942 1946 1951 1948 1947 1949 1948 1947 1945 1944 1945 1948 1948 1947 1949 1948 1947 1946 1944 1939 1933 1919 1898 1880 1868 1863 1878 1925 1981 2025 2073 2137 2202 2263 2325 2379 2428 2469 2492 2484 2450 2403 2345 2284 2220 2148 2070 2001 1933 1866 1808 1766 1757 1785 1823 1848 1875 1913 1941 1949 1952 1959 1960 1954 1953 1953 1952 1955 1955 1952 1954 1962 1968 1972 1979 1982 1978 1973 1967 1965 1973 1986 1999 2008 2012 2010 2002 1996 1992 1993 2005 2022 2032 2036 2036 2029 2022 2021 2028 2034 2043 2051 2055 2055 2053 2050 2050 2053 2057 2064 2074 2084 2089 2094 2103 2107 2110 2116 2117 2115 2111 2109 2103 2099 2096 2090 2084 2081 2076 2067 2067 2070 2068 2060 2051 2038 2022 2008 1996 1983 1977 1974 1969 1962 1958 1952 1946 1944 1943 1943 1944 1945 1945 1946 1946 1945 1945 1946 1946 1944 1945 1947 1946 1946 1951 1958 1966 1973 1979 1983 1991 1999 2003 2006 2010 2013 2013 2014 2014 2012 2011 2012 2010 2006 2005 2002 1996 1991 1983 1976 1970 1966 1958 1951 1949 1948 1948 1946 1943 1942 1946 1951 1948 1947 1949 1948 1947 1945 1944 1945 1948 1948 1947 1949 1948 1947 1946 1944 1939 1933 1919 1898 1880 1868 1863 1878 1925 1981 2025 2073 2137 2202 2263 2325 2379 2428 2469 2492 2484 2450 2403 2345 2284 2220 2148 2070 2001 1933 1866 1808 1766 1757 1785 1823 1848 1875 1913 1941 1949 1952 1959 1960 1954 1953 1953 1952 1955 1955 1952 1954 1962 1968 1972 1979 1982 1978 1973 1967 1965 1973 1986 1999 2008 2012 2010 2002 1996 1992 1993 2005 2022 2032 2036 2036 2029 2022 2021 2028 2034 2043 2051 2055 2055 2053 2050 2050 2053 2057 2064 2074 2084 2089 2094 2103 2107 2110 2116 2117 2115 2111 2109 2103 2099 2096 2090 2084 2081 2076 2067 2067 2070 2068 2060 2051 2038 2022 2008 1996 1983 1977 1974 1969 1962 1958 1952 1946 1944 1943 1943 1944 1945 1945 1946 1946 1945 1945 1946 1946 1944 1945 1947 1946 1946 1951 1958 1966 1973 1979 1983 1991 1999 2003 2006 2010 2013 2013 2014 2014 2012 2011 2012 2010 2006 2005 2002 1996 1991 1983 1976 1970 1966 1958 1951 1949 1948 1948 1946 1943 1942 1946 1951 1948 1947 1949 1948 1947 1945 1944 1945 1948 1948 1947 1949 1948 1947 1946 1944 1939 1933 1919 1898 1880 1868 1863 1878 1925 1981 2025 2073 2137 2202 2263 2325 2379 2428 2469 2492 2484 2450 2403 2345 2284 2220 2148 2070 2001 1933 1866 1808 1766 1757 1785 1823 1848 1875 1913 1941 1949 1952 1959 1960 1954 1953 1953 1952 1955 1955 1952 1954 1962 1968 1972 1979 1982 1978 1973 1967 1965 1973 1986 1999 2008 2012 2010 2002 1996 1992 1993 2005 2022 2032 2036 2036 2029 2022 2021 2028 2034 2043 2051 2055 2055 2053 2050 2050 2053 2057 2064 2074 2084 2089 2094 2103 2107 2110 2116 2117 2115 2111 2109 2103 2099 2096 2090 2084 2081 2076 2067 2067 2070 2068 2060 2051 2038 2022 2008 1996 1983 1977 1974 1969 1962 1958 1952 1946 1944 1943 1943 1944 1945 1945 1946 1946 1945 1945 1946 1946 1944 1945 1947 1946 1946 1951 1958 1966 1973 1979 1983 1991 1999 2003 2006 2010 2013 2013 2014 2014 2012 2011 2012 2010 2006 2005 2002 1996 1991 1983 1976 1970 1966 1958 1951 1949 1948 1948 1946 1943 1942 1946 1951 1948 1947 1949 1948 1947 1945 1944 1945 1948 1948 1947 1949 1948 1947 1946 1944 1939 1933 1919 1898 1880 1868 1863 1878 1925 1981 2025 2073 2137 2202 2263 2325 2379 2428 2469 2492 2484 2450 2403 2345 2284 2220 2148 2070 2001 1933 1866 1808 1766 1757 1785 1823 1848 1875 1913 1941 1949 1952 1959 1960 1954 1953 1953 1952 1955 1955 1952 1954 1962 1968 1972 1979 1982 1978 1973 1967 1965 1973 1986 1999 2008 2012 2010 2002 1996 1992 1993 2005 2022 2032 2036 2036 2029 2022 2021 2028 2034 2043 2051 2055 2055 2053 2050 2050 2053 2057 2064 2074 2084 2089 2094 2103 2107 2110 2116 2117 2115 2111 2109 2103 2099 2096 2090 2084 2081 2076 2067 2067 2070 2068 2060 2051 2038 2022 2008 1996 1983 1977 1974 1969 1962 1958 1952 1946 1944 1943 1943 1944 1945 1945 1946 1946 1945 1945 1946 1946 1944 1945 1947 1946 1946 1951 1958 1966 1973 1979 1983 1991 1999 2003 2006 2010 2013 2013 2014 2014 2012 2011 2012 2010 2006 2005 2002 1996 1991 1983 1976 1970 1966 1958 1951 1949 1948 1948 1946 1943 1942 1946 1951 1948 1947 1949 1948 1947 1945 1944 1945 1948 1948 1947 1949 1948 1947 1946 1944 1939 1933 1919 1898 1880 1868 1863 1878 1925 1981 2025 2073 2137 2202 2263 2325 2379 2428 2469 2492 2484 2450 2403 2345 2284 2220 2148 2070 2001 1933 1866 1808 1766 1757 1785 1823 1848 1875 1913 1941 1949 1952 1959 1960 1954 1953 1953 1952 1955 1955 1952 1954 1962 1968 1972 1979 1982 1978 1973 1967 1965 1973 1986 1999 2008 2012 2010 2002 1996 1992 1993 2005 2022 2032 2036 2036 2029 2022 2021 2028 2034 2043 2051 2055 2055 2053 2050 2050 2053 2057 2064 2074 2084 2089 2094 2103 2107 2110 2116 2117 2115 2111 2109 2103 2099 2096 2090 2084 2081 2076 2067 2067 2070 2068 2060 2051 2038 2022 2008 1996 1983 1977 1974 1969 1962 1958 1952 1946 1944 1943 1943 1944 1945 1945 1946 1946 1945 1945 1946 1946 1944 1945 1947 1946 1946 1951 1958 1966 1973 1979 1983 1991 1999 2003 2006 2010 2013 2013 2014 2014 2012 2011 2012 2010 2006 2005 2002 1996 1991 1983 1976 1970 1966 1958 1951 1949 1948 1948 1946 1943 1942 1946 1951 1948 1947 1949 1948 1947 1945 1944 1945 1948 1948 1947 1949 1948 1947 1946 1944 1939 1933 1919 1898 1880 1868 1863 1878 1925 1981 2025 2073 2137 2202 2263 2325 2379 2428 2469 2492 2484 2450 2403 2345 2284 2220 2148 2070 2001 1933 1866 1808 1766 1757 1785 1823 1848 1875 1913 1941 1949 1952 1959 1960 1954 1953 1953 1952 1955 1955 1952 1954 1962 1968 1972 1979 1982 1978 1973 1967 1965 1973 1986 1999 2008 2012 2010 2002 1996 1992 1993 2005 2022 2032 2036 2036 2029 2022 2021 2028 2034 2043 2051 2055 2055 2053 2050 2050 2053 2057 2064 2074 2084 2089 2094 2103 2107 2110 2116 2117 2115 2111 2109 2103 2099 2096 2090 2084 2081 2076 2067 2067 2070 2068 2060 2051 2038 2022 2008 1996 1983 1977 1974 1969 1962 1958 1952 1946 1944 1943 1943 1944 1945 1945 1946 1946 1945 1945 1946 1946 1944 1945 1947 1946 1946 1951 1958 1966 1973 1979 1983 1991 1999 2003 2006 2010 2013 2013 2014 2014 2012 2011 2012 2010 2006 2005 2002 1996 1991 1983 1976 1970 1966 1958 1951 1949 1948 1948 1946 1943 1942 1946 1951 1948 1947 1949 1948 1947 1945 1944 1945 1948 1948 1947 1949 1948 1947 1946 1944 1939 1933 1919 1898 1880 1868 1863 1878 1925 1981 2025 2073 2137 2202 2263 2325 2379 2428 2469 2492 2484 2450 2403 2345 2284 2220 2148 2070 2001 1933 1866 1808 1766 1757 1785 1823 1848 1875 1913 1941 1949 1952 1959 1960 1954 1953 1953 1952 1955 1955 1952 1954 1962 1968 1972 1979 1982 1978 1973 1967 1965 1973 1986 1999 2008 2012 2010 2002 1996 1992 1993 2005 2022 2032 2036 2036 2029 2022 2021 2028 2034 2043 2051 2055 2055 2053 2050 2050 2053 2057 2064 2074 2084 2089 2094 2103 2107 2110 2116 2117 2115 2111 2109 2103 2099 2096 2090 2084 2081 2076 2067 2067 2070 2068 2060 2051 2038 2022 2008 1996 1983 1977 1974 1969 1962 1958 1952 1946 1944 1943 1943 1944 1945 1945 1946 1946 1945 1945 1946 1946 1944 1945 1947 1946 1946 1951 1958 1966 1973 1979 1983 1991 1999 2003 2006 2010 2013 2013 2014 2014 2012 2011 2012 2010 2006 2005 2002 1996 1991 1983 1976 1970 1966 1958 1951 1949 1948 1948 1946 1943 1942 1946 1951 1948 1947 1949 1948 1947 1945 1944 1945 1948 1948 1947 1949 1948 1947 1946 1944 1939 1933 1919 1898 1880 1868 1863 1878 1925 1981 2025 2073 2137 2202 2263 2325 2379 2428 2469 2492 2484 2450 2403 2345 2284 2220 2148 2070 2001 1933 1866 1808 1766 1757 1785 1823 1848 1875 1913 1941 1949 1952 1959 1960 1954 1953 1953 1952 1955 1955 1952 1954 1962 1968 1972 1979 1982 1978 1973 1967 1965 1973 1986 1999 2008 2012 2010 2002 1996 1992 1993 2005 2022 2032 2036 2036 2029 2022 2021 2028 2034 2043 2051 2055 2055 2053 2050 2050 2053 2057 2064 2074 2084 2089 2094 2103 2107 2110 2116 2117 2115 2111 2109 2103 2099 2096 2090 2084 2081 2076 2067 2067 2070 2068 2060 2051 2038 2022 2008 1996 1983 1977 1974 1969 1962 1958 1952 1946 1944 1943 1943 1944 1945 1945 1946 1946 1945 1945 1946 1946 1944 1945 1947 1946 1946 1951 1958 1966 1973 1979 1983 1991 1999 2003 2006 2010 2013 2013 2014 2014 2012 2011 2012 2010 2006 2005 2002 1996 1991 1983 1976 1970 1966 1958 1951 1949 1948 1948 1946 1943 1942 1946 1951 1948 1947 1949 1948 1947 1945 1944 1945 1948 1948 1947 1949 1948 1947 1946 1944 1939 1933 1919 1898 1880 1868 1863 1878 1925 1981 2025 2073 2137 2202 2263 2325 2379 2428 2469 2492 2484 2450 2403 2345 2284 2220 2148 2070 2001 1933 1866 1808 1766 1757 1785 1823 1848 1875 1913 1941 1949 1952 1959 1960 1954 1953 1953 1952 1955 1955 1952 1954 1962 1968 1972 1979 1982 1978 1973 1967 1965 1973 1986 1999 2008 2012 2010 2002 1996 1992 1993 2005 2022 2032 2036 2036 2029 2022 2021 2028 2034 2043 2051 2055 2055 2053 2050 2050 2053 2057 2064 2074 2084 2089 2094 2103 2107 2110 2116 2117 2115 2111 2109 2103 2099 2096 2090 2084 2081 2076 2067 2067 2070 2068 2060 2051 2038 2022 2008 1996 1983 1977 1974 1969 1962 1958 1952 1946 1944 1943 1943 1944 1945 1945 1946 1946 1945 1945 1946 1946 1944 1945 1947 1946 1946 1951 1958 1966 1973 1979 1983 1991 1999 2003 2006 2010 2013 2013 2014 2014 2012 2011 2012 2010 2006 2005 2002 1996 1991 1983 1976 1970 1966 1958 1951 1949 1948 1948 1946 1943 1942 1946 1951 1948 1947 1949 1948 1947 1945 1944 1945 1948 1948 1947 1949 1948 1947 1946 1944 1939 1933 1919 1898 1880 1868 1863 1878 1925 1981 2025 2073 2137 2202 2263 2325 2379 2428 2469 2492 2484 2450 2403 2345 2284 2220 2148 2070 2001 1933 1866 1808 1766 1757 1785 1823 1848 1875 1913 1941 1949 1952 1959 1960 1954 1953 1953 1952 1955 1955 1952 1954 1962 1968 1972 1979 1982 1978 1973 1967 1965 1973 1986 1999 2008 2012 2010 2002 1996 1992 1993 2005 2022 2032 2036 2036 2029 2022 2021 2028 2034 2043 2051 2055 2055 2053 2050 2050 2053 2057 2064 2074 2084 2089 2094 2103 2107 2110 2116 2117 2115 2111 2109 2103 2099 2096 2090 2084 2081 2076 2067 2067 2070 2068 2060 2051 2038 2022 2008 1996 1983 1977 1974 1969 1962 1958 1952 1946 1944 1943 1943 1944 1945 1945 1946 1946 1945 1945 1946 1946 1944 1945 1947 1946 1946 1951 1958 1966 1973 1979 1983 1991 1999 2003 2006 2010 2013 2013 2014 2014 2012 2011 2012 2010 2006 2005 2002 1996 1991 1983 1976 1970 1966 1958 1951 1949 1948 1948 1946 1943 1942 1946 1951 1948 1947 1949 1948 1947 1945 1944 1945 1948 1948 1947 1949 1948 1947 1946 1944 1939 1933 1919 1898 1880 1868 1863 1878 1925 1981 2025 2073 2137 2202 2263 2325 2379 2428 2469 2492 2484 2450 2403 2345 2284 2220 2148 2070 2001 1933 1866 1808 1766 1757 1785 1823 1848 1875 1913 1941 1949 1952 1959 1960 1954 1953 1953 1952 1955 1955 1952 1954 1962 1968 1972 1979 1982 1978 1973 1967 1965 1973 1986 1999 2008 2012 2010 2002 1996 1992 1993 2005 2022 2032 2036 2036 2029 2022 2021 2028 2034 2043 2051 2055 2055 2053 2050 2050 2053 2057 2064 2074 2084 2089 2094 2103 2107 2110 2116 2117 2115 2111 2109 2103 2099 2096 2090 2084 2081 2076 2067 2067 2070 2068 2060 2051 2038 2022 2008 1996 1983 1977 1974 1969 1962 1958 1952 1946 1944 1943 1943 1944 1945 1945 1946 1946 1945 1945 1946 1946 1944 1945 1947 1946 1946 1951 1958 1966 1973 1979 1983 1991 1999 2003 2006 2010 2013 2013 2014 2014 2012 2011 2012 2010 2006 2005 2002 1996 1991 1983 1976 1970 1966 1958 1951 1949 1948 1948 1946 1943 1942 1946 1951 1948 1947 1949 1948 1947 1945 1944 1945 1948 1948 1947 1949 1948 1947 1946 1944 1939 1933 1919 1898 1880 1868 1863 1878 1925 1981 2025 2073 2137 2202 2263 2325 2379 2428 2469 2492 2484 2450 2403 2345 2284 2220 2148 2070 2001 1933 1866 1808 1766 1757 1785 1823 1848 1875 1913 1941 1949 1952 1959 1960 1954 1953 1953 1952 1955 1955 1952 1954 1962 1968 1972 1979 1982 1978 1973 1967 1965 1973 1986 1999 2008 2012 2010 2002 1996 1992 1993 2005 2022 2032 2036 2036 2029 2022 2021 2028 2034 2043 2051 2055 2055 2053 2050 2050 2053 2057 2064 2074 2084 2089 2094 2103 2107 2110 2116 2117 2115 2111 2109 2103 2099 2096 2090 2084 2081 2076 2067 2067 2070 2068 2060 2051 2038 2022 2008 1996 1983 1977 1974 1969 1962 1958 1952 1946 1944 1943 1943 1944 1945 1945 1946 1946 1945 1945 1946 1946 1944 1945 1947 1946 1946 1951 1958 1966 1973 1979 1983 1991 1999 2003 2006 2010 2013 2013 2014 2014 2012 2011 2012 2010 2006 2005 2002 1996 1991 1983 1976 1970 1966 1958 1951 1949 1948 1948 1946 1943 1942 1946 1951 1948 1947 1949 1948 1947 1945 1944 1945 1948 1948 1947 1949 1948 1947 1946 1944 1939 1933 1919 1898 1880 1868 1863 1878 1925 1981 2025 2073 2137 2202 2263 2325 2379 2428 2469 2492 2484 2450 2403 2345 2284 2220 2148 2070 2001 1933 1866 1808 1766 1757 1785 1823 1848 1875 1913 1941 1949 1952 1959 1960 1954 1953 1953 1952 1955 1955 1952 1954 1962 1968 1972 1979 1982 1978 1973 1967 1965 1973 1986 1999 2008 2012 2010 2002 1996 1992 1993 2005 2022 2032 2036 2036 2029 2022 2021 2028 2034 2043 2051 2055 2055 2053 2050 2050 2053 2057 2064 2074 2084 2089 2094 2103 2107 2110 2116 2117 2115 2111 2109 2103 2099 2096 2090 2084 2081 2076 2067 2067 2070 2068 2060 2051 2038 2022 2008 1996 1983 1977 1974 1969 1962 1958 1952 1946 1944 1943 1943 1944 1945 1945 1946 1946 1945 1945 1946 1946 1944 1945 1947 1946 1946 1951 1958 1966 1973 1979 1983 1991 1999 2003 2006 2010 2013 2013 2014 2014 2012 2011 2012 2010 2006 2005 2002 1996 1991 1983 1976 1970 1966 1958 1951 1949 1948 1948 1946 1943 1942 1946 1951 1948 1947 1949 1948 1947 1945 1944 1945 1948 1948 1947 1949 1948 1947 1946 1944 1939 1933 1919 1898 1880 1868 1863 1878 1925 1981 2025 2073 2137 2202 2263 2325 2379 2428 2469 2492 2484 2450 2403 2345 2284 2220 2148 2070 2001 1933 1866 1808 1766 1757 1785 1823 1848 1875 1913 1941 1949 1952 1959 1960 1954 1953 1953 1952 1955 1955 1952 1954 1962 1968 1972 1979 1982 1978 1973 1967 1965 1973 1986 1999 2008 2012 2010 2002 1996 1992 1993 2005 2022 2032 2036 2036 2029 2022 2021 2028 2034 2043 2051 2055 2055 2053 2050 2050 2053 2057 2064 2074 2084 2089 2094 2103 2107 2110 2116 2117 2115 2111 2109 2103 2099 2096 2090 2084 2081 2076 2067 2067 2070 2068 2060 2051 2038 2022 2008 1996 1983 1977 1974 1969 1962 1958 1952 1946 1944 1943 1943 1944 1945 1945 1946 1946 1945 1945 1946 1946 1944 1945 1947 1946 1946 1951 1958 1966 1973 1979 1983 1991 1999 2003 2006 2010 2013 2013 2014 2014 2012 2011 2012 2010 2006 2005 2002 1996 1991 1983 1976 1970 1966 1958 1951 1949 1948 1948 1946 1943 1942 1946 1951 1948 1947 1949 1948 1947 1945 1944 1945 1948 1948 1947 1949 1948 1947 1946 1944 1939 1933 1919 1898 1880 1868 1863 1878 1925 1981 2025 2073 2137 2202 2263 2325 2379 2428 2469 2492 2484 2450 2403 2345 2284 2220 2148 2070 2001 1933 1866 1808 1766 1757 1785 1823 1848 1875 1913 1941 1949 1952 1959 1960 1954 1953 1953 1952 1955 1955 1952 1954 1962 1968 1972 1979 1982 1978 1973 1967 1965 1973 1986 1999 2008 2012 2010 2002 1996 1992 1993 2005 2022 2032 2036 2036 2029 2022 2021 2028 2034 2043 2051 2055 2055 2053 2050 2050 2053 2057 2064 2074 2084 2089 2094 2103 2107 2110 2116 2117 2115 2111 2109 2103 2099 2096 2090 2084 2081 2076 2067 2067 2070 2068 2060 2051 2038 2022 2008 1996 1983 1977 1974 1969 1962 1958 1952 1946 1944 1943 1943 1944 1945 1945 1946 1946 1945 1945 1946 1946 1944 1945 1947 1946 1946 1951 1958 1966 1973 1979 1983 1991 1999 2003 2006 2010 2013 2013 2014 2014 2012 2011 2012 2010 2006 2005 2002 1996 1991 1983 1976 1970 1966 1958 1951 1949 1948 1948 1946 1943 1942 1946 1951 1948 1947 1949 1948 1947 1945 1944 1945 1948 1948 1947 1949 1948 1947 1946 1944 1939 1933 1919 1898 1880 1868 1863 1878 1925 1981 2025 2073 2137 2202 2263 2325 2379 2428 2469 2492 2484 2450 2403 2345 2284 2220 2148 2070 2001 1933 1866 1808 1766 1757 1785 1823 1848 1875 1913 1941 1949 1952 1959 1960 1954 1953 1953 1952 1955 1955 1952 1954 1962 1968 1972 1979 1982 1978 1973 1967 1965 1973 1986 1999 2008 2012 2010 2002 1996 1992 1993 2005 2022 2032 2036 2036 2029 2022 2021 2028 2034 2043 2051 2055 2055 2053 2050 2050 2053 2057 2064 2074 2084 2089 2094 2103 2107 2110 2116 2117 2115 2111 2109 2103 2099 2096 2090 2084 2081 2076 2067 2067 2070 2068 2060 2051 2038 2022 2008 1996 1983 1977 1974 1969 1962 1958 1952 1946 1944 1943 1943 1944 1945 1945 1946 1946 1945 1945 1946 1946 1944 1945 1947 1946 1946 1951 1958 1966 1973 1979 1983 1991 1999 2003 2006 2010 2013 2013 2014 2014 2012 2011 2012 2010 2006 2005 2002 1996 1991 1983 1976 1970 1966 1958 1951 1949 1948 1948 1946 1943 1942 1946 1951 1948 1947 1949 1948 1947 1945 1944 1945 1948 1948 1947 1949 1948 1947 1946 1944 1939 1933 1919 1898 1880 1868 1863 1878 1925 1981 2025 2073 2137 2202 2263 2325 2379 2428 2469 2492 2484 2450 2403 2345 2284 2220 2148 2070 2001 1933 1866 1808 1766 1757 1785 1823 1848 1875 1913 1941 1949 1952 1959 1960 1954 1953 1953 1952 1955 1955 1952 1954 1962 1968 1972 1979 1982 1978 1973 1967 1965 1973 1986 1999 2008 2012 2010 2002 1996 1992 1993 2005 2022 2032 2036 2036 2029 2022 2021 2028 2034 2043 2051 2055 2055 2053 2050 2050 2053 2057 2064 2074 2084 2089 2094 2103 2107 2110 2116 2117 2115 2111 2109 2103 2099 2096 2090 2084 2081 2076 2067 2067 2070 2068 2060 2051 2038 2022 2008 1996 1983 1977 1974 1969 1962 1958 1952 1946 1944 1943 1943 1944 1945 1945 1946 1946 1945 1945 1946 1946 1944 1945 1947 1946 1946 1951 1958 1966 1973 1979 1983 1991 1999 2003 2006 2010 2013 2013 2014 2014 2012 2011 2012 2010 2006 2005 2002 1996 1991 1983 1976 1970 1966 1958 1951 1949 1948 1948 1946 1943 1942 1946 1951 1948 1947 1949 1948 1947 1945 1944 1945 1948 1948 1947 1949 1948 1947 1946 1944 1939 1933 1919 1898 1880 1868 1863 1878 1925 1981 2025 2073 2137 2202 2263 2325 2379 2428 2469 2492 2484 2450 2403 2345 2284 2220 2148 2070 2001 1933 1866 1808 1766 1757 1785 1823 1848 1875 1913 1941 1949 1952 1959 1960 1954 1953 1953 1952 1955 1955 1952 1954 1962 1968 1972 1979 1982 1978 1973 1967 1965 1973 1986 1999 2008 2012 2010 2002 1996 1992 1993 2005 2022 2032 2036 2036 2029 2022 2021 2028 2034 2043 2051 2055 2055 2053 2050 2050 2053 2057 2064 2074 2084 2089 2094 2103 2107 2110 2116 2117 2115 2111 2109 2103 2099 2096 2090 2084 2081 2076 2067 2067 2070 2068 2060 2051 2038 2022 2008 1996 1983 1977 1974 1969 1962 1958 1952 1946 1944 1943 1943 1944 1945 1945 1946 1946 1945 1945 1946 1946 1944 1945 1947 1946 1946 1951 1958 1966 1973 1979 1983 1991 1999 2003 2006 2010 2013 2013 2014 2014 2012 2011 2012 2010 2006 2005 2002 1996 1991 1983 1976 1970 1966 1958 1951 1949 1948 1948 1946 1943 1942 1946 1951 1948 1947 1949 1948 1947 1945 1944 1945 1948 1948 1947 1949 1948 1947 1946 1944 1939 1933 1919 1898 1880 1868 1863 1878 1925 1981 2025 2073 2137 2202 2263 2325 2379 2428 2469 2492 2484 2450 2403 2345 2284 2220 2148 2070 2001 1933 1866 1808 1766 1757 1785 1823 1848 1875 1913 1941 1949 1952 1959 1960 1954 1953 1953 1952 1955 1955 1952 1954 1962 1968 1972 1979 1982 1978 1973 1967 1965 1973 1986 1999 2008 2012 2010 2002 1996 1992 1993 2005 2022 2032 2036 2036 2029 2022 2021 2028 2034 2043 2051 2055 2055 2053 2050 2050 2053 2057 2064 2074 2084 2089 2094 2103 2107 2110 2116 2117 2115 2111 2109 2103 2099 2096 2090 2084 2081 2076 2067 2067 2070 2068 2060 2051 2038 2022 2008 1996 1983 1977 1974 1969 1962 1958 1952 1946 1944 1943 1943 1944 1945 1945 1946 1946 1945 1945 1946 1946 1944 1945 1947 1946 1946 1951 1958 1966 1973 1979 1983 1991 1999 2003 2006 2010 2013 2013 2014 2014 2012 2011 2012 2010 2006 2005 2002 1996 1991 1983 1976 1970 1966 1958 1951 1949 1948 1948 1946 1943 1942 1946 1951 1948 1947 1949 1948 1947 1945 1944 1945 1948 1948 1947 1949 1948 1947 1946 1944 1939 1933 1919 1898 1880 1868 1863 1878 1925 1981 2025 2073 2137 2202 2263 2325 2379 2428 2469 2492 2484 2450 2403 2345 2284 2220 2148 2070 2001 1933 1866 1808 1766 1757 1785 1823 1848 1875 1913 1941 1949 1952 1959 1960 1954 1953 1953 1952 1955 1955 1952 1954 1962 1968 1972 1979 1982 1978 1973 1967 1965 1973 1986 1999 2008 2012 2010 2002 1996 1992 1993 2005 2022 2032 2036 2036 2029 2022 2021 2028 2034 2043 2051 2055 2055 2053 2050 2050 2053 2057 2064 2074 2084 2089 2094 2103 2107 2110 2116 2117 2115 2111 2109 2103 2099 2096 2090 2084 2081 2076 2067 2067 2070 2068 2060 2051 2038 2022 2008 1996 1983 1977 1974 1969 1962 1958 1952 1946 1944 1943 1943 1944 1945 1945 1946 1946 1945 1945 1946 1946 1944 1945 1947 1946 1946 1951 1958 1966 1973 1979 1983 1991 1999 2003 2006 2010 2013 2013 2014 2014 2012 2011 2012 2010 2006 2005 2002 1996 1991 1983 1976 1970 1966 1958 1951 1949 1948 1948 1946 1943 1942 1946 1951 1948 1947 1949 1948 1947 1945 1944 1945 1948 1948 1947 1949 1948 1947 1946 1944 1939 1933 1919 1898 1880 1868 1863 1878 1925 1981 2025 2073 2137 2202 2263 2325 2379 2428 2469 2492 2484 2450 2403 2345 2284 2220 2148 2070 2001 1933 1866 1808 1766 1757 1785 1823 1848 1875 1913 1941 1949 1952 1959 1960 1954 1953 1953 1952 1955 1955 1952 1954 1962 1968 1972 1979 1982 1978 1973 1967 1965 1973 1986 1999 2008 2012 2010 2002 1996 1992 1993 2005 2022 2032 2036 2036 2029 2022 2021 2028 2034 2043 2051 2055 2055 2053 2050 2050 2053 2057 2064 2074 2084 2089 2094 2103 2107 2110 2116 2117 2115 2111 2109 2103 2099 2096 2090 2084 2081 2076 2067 2067 2070 2068 2060 2051 2038 2022 2008 1996 1983 1977 1974 1969 1962 1958 1952 1946 1944 1943 1943 1944 1945 1945 1946 1946 1945 1945 1946 1946 1944 1945 1947 1946 1946 1951 1958 1966 1973 1979 1983 1991 1999 2003 2006 2010 2013 2013 2014 2014 2012 2011 2012 2010 2006 2005 2002 1996 1991 1983 1976 1970 1966 1958 1951 1949 1948 1948 1946 1943 1942 1946 1951 1948 1947 1949 1948 1947 1945 1944 1945 1948 1948 1947 1949 1948 1947 1946 1944 1939 1933 1919 1898 1880 1868 1863 1878 1925 1981 2025 2073 2137 2202 2263 2325 2379 2428 2469 2492 2484 2450 2403 2345 2284 2220 2148 2070 2001 1933 1866 1808 1766 1757 1785 1823 1848 1875 1913 1941 1949 1952 1959 1960 1954 1953 1953 1952 1955 1955 1952 1954 1962 1968 1972 1979 1982 1978 1973 1967 1965 1973 1986 1999 2008 2012 2010 2002 1996 1992 1993 2005 2022 2032 2036 2036 2029 2022 2021 2028 2034 2043 2051 2055 2055 2053 2050 2050 2053 2057 2064 2074 2084 2089 2094 2103 2107 2110 2116 2117 2115 2111 2109 2103 2099 2096 2090 2084 2081 2076 2067 2067 2070 2068 2060 2051 2038 2022 2008 1996 1983 1977 1974 1969 1962 1958 1952 1946 1944 1943 1943 1944 1945 1945 1946 1946 1945 1945 1946 1946 1944 1945 1947 1946 1946 1951 1958 1966 1973 1979 1983 1991 1999 2003 2006 2010 2013 2013 2014 2014 2012 2011 2012 2010 2006 2005 2002 1996 1991 1983 1976 1970 1966 1958 1951 1949 1948 1948 1946 1943 1942 1946 1951 1948 1947 1949 1948 1947 1945 1944 1945 1948 1948 1947 1949 1948 1947 1946 1944 1939 1933 1919 1898 1880 1868 1863 1878 1925 1981 2025 2073 2137 2202 2263 2325 2379 2428 2469 2492 2484 2450 2403 2345 2284 2220 2148 2070 2001 1933 1866 1808 1766 1757 1785 1823 1848 1875 1913 1941 1949 1952 1959 1960 1954 1953 1953 1952 1955 1955 1952 1954 1962 1968 1972 1979 1982 1978 1973 1967 1965 1973 1986 1999 2008 2012 2010 2002 1996 1992 1993 2005 2022 2032 2036 2036 2029 2022 2021 2028 2034 2043 2051 2055 2055 2053 2050 2050 2053 2057 2064 2074 2084 2089 2094 2103 2107 2110 2116 2117 2115 2111 2109 2103 2099 2096 2090 2084 2081 2076 2067 2067 2070 2068 2060 2051 2038 2022 2008 1996 1983 1977 1974 1969 1962 1958 1952 1946 1944 1943 1943 1944 1945 1945 1946 1946 1945 1945 1946 1946 1944 1945 1947 1946 1946 1951 1958 1966 1973 1979 1983 1991 1999 2003 2006 2010 2013 2013 2014 2014 2012 2011 2012 2010 2006 2005 2002 1996 1991 1983 1976 1970 1966 1958 1951 1949 1948 1948 1946 1943 1942 1946 1951 1948 1947 1949 1948 1947 1945 1944 1945 1948 1948 1947 1949 1948 1947 1946 1944 1939 1933 1919 1898 1880 1868 1863 1878 1925 1981 2025 2073 2137 2202 2263 2325 2379 2428 2469 2492 2484 2450 2403 2345 2284 2220 2148 2070 2001 1933 1866 1808 1766 1757 1785 1823 1848 1875 1913 1941 1949 1952 1959 1960 1954 1953 1953 1952 1955 1955 1952 1954 1962 1968 1972 1979 1982 1978 1973 1967 1965 1973 1986 1999 2008 2012 2010 2002 1996 1992 1993 2005 2022 2032 2036 2036 2029 2022 2021 2028 2034 2043 2051 2055 2055 2053 2050 2050 2053 2057 2064 2074 2084 2089 2094 2103 2107 2110 2116 2117 2115 2111 2109 2103 2099 2096 2090 2084 2081 2076 2067 2067 2070 2068 2060 2051 2038 2022 2008 1996 1983 1977 1974 1969 1962 1958 1952 1946 1944 1943 1943 1944 1945 1945 1946 1946 1945 1945 1946 1946 1944 1945 1947 1946 1946 1951 1958 1966 1973 1979 1983 1991 1999 2003 2006 2010 2013 2013 2014 2014 2012 2011 2012 2010 2006 2005 2002 1996 1991 1983 1976 1970 1966 1958 1951 1949 1948 1948 1946 1943 1942 1946 1951 1948 1947 1949 1948 1947 1945 1944 1945 1948 1948 1947 1949 1948 1947 1946 1944 1939 1933 1919 1898 1880 1868 1863 1878 1925 1981 2025 2073 2137 2202 2263 2325 2379 2428 2469 2492 2484 2450 2403 2345 2284 2220 2148 2070 2001 1933 1866 1808 1766 1757 1785 1823 1848 1875 1913 1941 1949 1952 1959 1960 1954 1953 1953 1952 1955 1955 1952 1954 1962 1968 1972 1979 1982 1978 1973 1967 1965 1973 1986 1999 2008 2012 2010 2002 1996 1992 1993 2005 2022 2032 2036 2036 2029 2022 2021 2028 2034 2043 2051 2055 2055 2053 2050 2050 2053 2057 2064 2074 2084 2089 2094 2103 2107 2110 2116 2117 2115 2111 2109 2103 2099 2096 2090 2084 2081 2076 2067 2067 2070 2068 2060 2051 2038 2022 2008 1996 1983 1977 1974 1969 1962 1958 1952 1946 1944 1943 1943 1944 1945 1945 1946 1946 1945 1945 1946 1946 1944 1945 1947 1946 1946 1951 1958 1966 1973 1979 1983 1991 1999 2003 2006 2010 2013 2013 2014 2014 2012 2011 2012 2010 2006 2005 2002 1996 1991 1983 1976 1970 1966 1958 1951 1949 1948 1948 1946 1943 1942 1946 1951 1948 1947 1949 1948 1947 1945 1944 1945 1948 1948 1947 1949 1948 1947 1946 1944 1939 1933 1919 1898 1880 1868 1863 1878 1925 1981 2025 2073 2137 2202 2263 2325 2379 2428 2469 2492 2484 2450 2403 2345 2284 2220 2148 2070 2001 1933 1866 1808 1766 1757 1785 1823 1848 1875 1913 1941 1949 1952 1959 1960 1954 1953 1953 1952 1955 1955 1952 1954 1962 1968 1972 1979 1982 1978 1973 1967 1965 1973 1986 1999 2008 2012 2010 2002 1996 1992 1993 2005 2022 2032 2036 2036 2029 2022 2021 2028 2034 2043 2051 2055 2055 2053 2050 2050 2053 2057 2064 2074 2084 2089 2094 2103 2107 2110 2116 2117 2115 2111 2109 2103 2099 2096 2090 2084 2081 2076 2067 2067 2070 2068 2060 2051 2038 2022 2008 1996 1983 1977 1974 1969 1962 1958 1952 1946 1944 1943 1943 1944 1945 1945 1946 1946 1945 1945 1946 1946 1944 1945 1947 1946 1946 1951 1958 1966 1973 1979 1983 1991 1999 2003 2006 2010 2013 2013 2014 2014 2012 2011 2012 2010 2006 2005 2002 1996 1991 1983 1976 1970 1966 1958 1951 1949 1948 1948 1946 1943 1942 1946 1951 1948 1947 1949 1948 1947 1945 1944 1945 1948 1948 1947 1949 1948 1947 1946 1944 1939 1933 1919 1898 1880 1868 1863 1878 1925 1981 2025 2073 2137 2202 2263 2325 2379 2428 2469 2492 2484 2450 2403 2345 2284 2220 2148 2070 2001 1933 1866 1808 1766 1757 1785 1823 1848 1875 1913 1941 1949 1952 1959 1960 1954 1953 1953 1952 1955 1955 1952 1954 1962 1968 1972 1979 1982 1978 1973 1967 1965 1973 1986 1999 2008 2012 2010 2002 1996 1992 1993 2005 2022 2032 2036 2036 2029 2022 2021 2028 2034 2043 2051 2055 2055 2053 2050 2050 2053 2057 2064 2074 2084 2089 2094 2103 2107 2110 2116 2117 2115 2111 2109 2103 2099 2096 2090 2084 2081 2076 2067 2067 2070 2068 2060 2051 2038 2022 2008 1996 1983 1977 1974 1969 1962 1958 1952 1946 1944 1943 1943 1944 1945 1945 1946 1946 1945 1945 1946 1946 1944 1945 1947 1946 1946 1951 1958 1966 1973 1979 1983 1991 1999 2003 2006 2010 2013 2013 2014 2014 2012 2011 2012 2010 2006 2005 2002 1996 1991 1983 1976 1970 1966 1958 1951 1949 1948 1948 1946 1943 1942 1946 1951 1948 1947 1949 1948 1947 1945 1944 1945 1948 1948 1947 1949 1948 1947 1946 1944 1939 1933 1919 1898 1880 1868 1863 1878 1925 1981 2025 2073 2137 2202 2263 2325 2379 2428 2469 2492 2484 2450 2403 2345 2284 2220 2148 2070 2001 1933 1866 1808 1766 1757 1785 1823 1848 1875 1913 1941 1949 1952 1959 1960 1954 1953 1953 1952 1955 1955 1952 1954 1962 1968 1972 1979 1982 1978 1973 1967 1965 1973 1986 1999 2008 2012 2010 2002 1996 1992 1993 2005 2022 2032 2036 2036 2029 2022 2021 2028 2034 2043 2051 2055 2055 2053 2050 2050 2053 2057 2064 2074 2084 2089 2094 2103 2107 2110 2116 2117 2115 2111 2109 2103 2099 2096 2090 2084 2081 2076 2067 2067 2070 2068 2060 2051 2038 2022 2008 1996 1983 1977 1974 1969 1962 1958 1952 1946 1944 1943 1943 1944 1945 1945 1946 1946 1945 1945 1946 1946 1944 1945 1947 1946 1946 1951 1958 1966 1973 1979 1983 1991 1999 2003 2006 2010 2013 2013 2014 2014 2012 2011 2012 2010 2006 2005 2002 1996 1991 1983 1976 1970 1966 1958 1951 1949 1948 1948 1946 1943 1942 1946 1951 1948 1947 1949 1948 1947 1945 1944 1945 1948 1948 1947 1949 1948 1947 1946 