2046 2054 2064 2078 2090 2094 2094 2093 2092 2089 2093 2100 2109 2125 2141 2146 2154 2166 2171 2175 2184 2188 2182 2175 2171 2162 2158 2156 2149 2137 2133 2127 2118 2117 2118 2112 2101 2088 2067 2046 2028 2010 1991 1982 1980 1972 1962 1957 1948 1938 1935 1937 1936 1938 1942 1941 1941 1942 1941 1939 1941 1940 1936 1939 1944 1942 1941 1948 1957 1967 1979 1988 1995 2005 2016 2019 2024 2033 2037 2035 2035 2036 2034 2035 2036 2032 2026 2024 2018 2011 2005 1996 1983 1975 1968 1958 1948 1945 1945 1941 1942 1939 1936 1940 1946 1944 1941 1946 1944 1940 1943 1938 1939 1943 1942 1941 1944 1943 1941 1944 1941 1932 1919 1898 1869 1846 1829 1821 1847 1916 1994 2056 2132 2222 2310 2399 2487 2562 2628 2688 2718 2701 2649 2581 2500 2414 2321 2217 2108 2010 1914 1821 1739 1684 1673 1716 1771 1805 1843 1897 1935 1944 1950 1959 1958 1951 1951 1950 1949 1950 1950 1949 1953 1964 1971 1979 1990 1994 1986 1981 1974 1969 1979 2001 2017 2029 2036 2031 2018 2009 2007 2011 2027 2048 2059 2065 2067 2057 2046 2046 2054 2064 2078 2090 2094 2094 2093 2092 2089 2093 2100 2109 2125 2141 2146 2154 2166 2171 2175 2184 2188 2182 2175 2171 2162 2158 2156 2149 2137 2133 2127 2118 2117 2118 2112 2101 2088 2067 2046 2028 2010 1991 1982 1980 1972 1962 1957 1948 1938 1935 1937 1936 1938 1942 1941 1941 1942 1941 1939 1941 1940 1936 1939 1944 1942 1941 1948 1957 1967 1979 1988 1995 2005 2016 2019 2024 2033 2037 2035 2035 2036 2034 2035 2036 2032 2026 2024 2018 2011 2005 1996 1983 1975 1968 1958 1948 1945 1945 1941 1942 1939 1936 1940 1946 1944 1941 1946 1944 1940 1943 1938 1939 1943 1942 1941 1944 1943 1941 1944 1941 1932 1919 1898 1869 1846 1829 1821 1847 1916 1994 2056 2132 2222 2310 2399 2487 2562 2628 2688 2718 2701 2649 2581 2500 2414 2321 2217 2108 2010 1914 1821 1739 1684 1673 1716 1771 1805 1843 1897 1935 1944 1950 1959 1958 1951 1951 1950 1949 1950 1950 1949 1953 1964 1971 1979 1990 1994 1986 1981 1974 1969 1979 2001 2017 2029 2036 2031 2018 2009 2007 2011 2027 2048 2059 2065 2067 2057 2046 2046 2054 2064 2078 2090 2094 2094 2093 2092 2089 2093 2100 2109 2125 2141 2146 2154 2166 2171 2175 2184 2188 2182 2175 2171 2162 2158 2156 2149 2137 2133 2127 2118 2117 2118 2112 2101 2088 2067 2046 2028 2010 1991 1982 1980 1972 1962 1957 1948 1938 1935 1937 1936 1938 1942 1941 1941 1942 1941 1939 1941 1940 1936 1939 1944 1942 1941 1948 1957 1967 1979 1988 1995 2005 2016 2019 2024 2033 2037 2035 2035 2036 2034 2035 2036 2032 2026 2024 2018 2011 2005 1996 1983 1975 1968 1958 1948 1945 1945 1941 1942 1939 1936 1940 1946 1944 1941 1946 1944 1940 1943 1938 1939 1943 1942 1941 1944 1943 1941 1944 1941 1932 1919 1898 1869 1846 1829 1821 1847 1916 1994 2056 2132 2222 2310 2399 2487 2562 2628 2688 2718 2701 2649 2581 2500 2414 2321 2217 2108 2010 1914 1821 1739 1684 1673 1716 1771 1805 1843 1897 1935 1944 1950 1959 1958 1951 1951 1950 1949 1950 1950 1949 1953 1964 1971 1979 1990 1994 1986 1981 1974 1969 1979 2001 2017 2029 2036 2031 2018 2009 2007 2011 2027 2048 2059 2065 2067 2057 2046 2046 2054 2064 2078 2090 2094 2094 2093 2092 2089 2093 2100 2109 2125 2141 2146 2154 2166 2171 2175 2184 2188 2182 2175 2171 2162 2158 2156 2149 2137 2133 2127 2118 2117 2118 2112 2101 2088 2067 2046 2028 2010 1991 1982 1980 1972 1962 1957 1948 1938 1935 1937 1936 1938 1942 1941 1941 1942 1941 1939 1941 1940 1936 1939 1944 1942 1941 1948 1957 1967 1979 1988 1995 2005 2016 2019 2024 2033 2037 2035 2035 2036 2034 2035 2036 2032 2026 2024 2018 2011 2005 1996 1983 1975 1968 1958 1948 1945 1945 1941 1942 1939 1936 1940 1946 1944 1941 1946 1944 1940 1943 1938 1939 1943 1942 1941 1944 1943 1941 1944 1941 1932 1919 1898 1869 1846 1829 1821 1847 1916 1994 2056 2132 2222 2310 2399 2487 2562 2628 2688 2718 2701 2649 2581 2500 2414 2321 2217 2108 2010 1914 1821 1739 1684 1673 1716 1771 1805 1843 1897 1935 1944 1950 1959 1958 1951 1951 1950 1949 1950 1950 1949 1953 1964 1971 1979 1990 1994 1986 1981 1974 1969 1979 2001 2017 2029 2036 2031 2018 2009 2007 2011 2027 2048 2059 2065 2067 2057 2046 2046 2054 2064 2078 2090 2094 2094 2093 2092 2089 2093 2100 2109 2125 2141 2146 2154 2166 2171 2175 2184 2188 2182 2175 2171 2162 2158 2156 2149 2137 2133 2127 2118 2117 2118 2112 2101 2088 2067 2046 2028 2010 1991 1982 1980 1972 1962 1957 1948 1938 1935 1937 1936 1938 1942 1941 1941 1942 1941 1939 1941 1940 1936 1939 1944 1942 1941 1948 1957 1967 1979 1988 1995 2005 2016 2019 2024 2033 2037 2035 2035 2036 2034 2035 2036 2032 2026 2024 2018 2011 2005 1996 1983 1975 1968 1958 1948 1945 1945 1941 1942 1939 1936 1940 1946 1944 1941 1946 1944 1940 1943 1938 1939 1943 1942 1941 1944 1943 1941 1944 1941 1932 1919 1898 1869 1846 1829 1821 1847 1916 1994 2056 2132 2222 2310 2399 2487 2562 2628 2688 2718 2701 2649 2581 2500 2414 2321 2217 2108 2010 1914 1821 1739 1684 1673 1716 1771 1805 1843 1897 1935 1944 1950 1959 1958 1951 1951 1950 1949 1950 1950 1949 1953 1964 1971 1979 1990 1994 1986 1981 1974 1969 1979 2001 2017 2029 2036 2031 2018 2009 2007 2011 2027 2048 2059 2065 2067 2057 2046 2046 2054 2064 2078 2090 2094 2094 2093 2092 2089 2093 2100 2109 2125 2141 2146 2154 2166 2171 2175 2184 2188 2182 2175 2171 2162 2158 2156 2149 2137 2133 2127 2118 2117 2118 2112 2101 2088 2067 2046 2028 2010 1991 1982 1980 1972 1962 1957 1948 1938 1935 1937 1936 1938 1942 1941 1941 1942 1941 1939 1941 1940 1936 1939 1944 1942 1941 1948 1957 1967 1979 1988 1995 2005 2016 2019 2024 2033 2037 2035 2035 2036 2034 2035 2036 2032 2026 2024 2018 2011 2005 1996 1983 1975 1968 1958 1948 1945 1945 1941 1942 1939 1936 1940 1946 1944 1941 1946 1944 1940 1943 1938 1939 1943 1942 1941 1944 1943 1941 1944 1941 1932 1919 1898 1869 1846 1829 1821 1847 1916 1994 2056 2132 2222 2310 2399 2487 2562 2628 2688 2718 2701 2649 2581 2500 2414 2321 2217 2108 2010 1914 1821 1739 1684 1673 1716 1771 1805 1843 1897 1935 1944 1950 1959 1958 1951 1951 1950 1949 1950 1950 1949 1953 1964 1971 1979 1990 1994 1986 1981 1974 1969 1979 2001 2017 2029 2036 2031 2018 2009 2007 2011 2027 2048 2059 2065 2067 2057 2046 2046 2054 2064 2078 2090 2094 2094 2093 2092 2089 2093 2100 2109 2125 2141 2146 2154 2166 2171 2175 2184 2188 2182 2175 2171 2162 2158 2156 2149 2137 2133 2127 2118 2117 2118 2112 2101 2088 2067 2046 2028 2010 1991 1982 1980 1972 1962 1957 1948 1938 1935 1937 1936 1938 1942 1941 1941 1942 1941 1939 1941 1940 1936 1939 1944 1942 1941 1948 1957 1967 1979 1988 1995 2005 2016 2019 2024 2033 2037 2035 2035 2036 2034 2035 2036 2032 2026 2024 2018 2011 2005 1996 1983 1975 1968 1958 1948 1945 1945 1941 1942 1939 1936 1940 1946 1944 1941 1946 1944 1940 1943 1938 1939 1943 1942 1941 1944 1943 1941 1944 1941 1932 1919 1898 1869 1846 1829 1821 1847 1916 1994 2056 2132 2222 2310 2399 2487 2562 2628 2688 2718 2701 2649 2581 2500 2414 2321 2217 2108 2010 1914 1821 1739 1684 1673 1716 1771 1805 1843 1897 1935 1944 1950 1959 1958 1951 1951 1950 1949 1950 1950 1949 1953 1964 1971 1979 1990 1994 1986 1981 1974 1969 1979 2001 2017 2029 2036 2031 2018 2009 2007 2011 2027 2048 2059 2065 2067 2057 2046 2046 2054 2064 2078 2090 2094 2094 2093 2092 2089 2093 2100 2109 2125 2141 2146 2154 2166 2171 2175 2184 2188 2182 2175 2171 2162 2158 2156 2149 2137 2133 2127 2118 2117 2118 2112 2101 2088 2067 2046 2028 2010 1991 1982 1980 1972 1962 1957 1948 1938 1935 1937 1936 1938 1942 1941 1941 1942 1941 1939 1941 1940 1936 1939 1944 1942 1941 1948 1957 1967 1979 1988 1995 2005 2016 2019 2024 2033 2037 2035 2035 2036 2034 2035 2036 2032 2026 2024 2018 2011 2005 1996 1983 1975 1968 1958 1948 1945 1945 1941 1942 1939 1936 1940 1946 1944 1941 1946 1944 1940 1943 1938 1939 1943 1942 1941 1944 1943 1941 1944 1941 1932 1919 1898 1869 1846 1829 1821 1847 1916 1994 2056 2132 2222 2310 2399 2487 2562 2628 2688 2718 2701 2649 2581 2500 2414 2321 2217 2108 2010 1914 1821 1739 1684 1673 1716 1771 1805 1843 1897 1935 1944 1950 1959 1958 1951 1951 1950 1949 1950 1950 1949 1953 1964 1971 1979 1990 1994 1986 1981 1974 1969 1979 2001 2017 2029 2036 2031 2018 2009 2007 2011 2027 2048 2059 2065 2067 2057 2046 2046 2054 2064 2078 2090 2094 2094 2093 2092 2089 2093 2100 2109 2125 2141 2146 2154 2166 2171 2175 2184 2188 2182 2175 2171 2162 2158 2156 2149 2137 2133 2127 2118 2117 2118 2112 2101 2088 2067 2046 2028 2010 1991 1982 1980 1972 1962 1957 1948 1938 1935 1937 1936 1938 1942 1941 1941 1942 1941 1939 1941 1940 1936 1939 1944 1942 1941 1948 1957 1967 1979 1988 1995 2005 2016 2019 2024 2033 2037 2035 2035 2036 2034 2035 2036 2032 2026 2024 2018 2011 2005 1996 1983 1975 1968 1958 1948 1945 1945 1941 1942 1939 1936 1940 1946 1944 1941 1946 1944 1940 1943 1938 1939 1943 1942 1941 1944 1943 1941 1944 1941 1932 1919 1898 1869 1846 1829 1821 1847 1916 1994 2056 2132 2222 2310 2399 2487 2562 2628 2688 2718 2701 2649 2581 2500 2414 2321 2217 2108 2010 1914 1821 1739 1684 1673 1716 1771 1805 1843 1897 1935 1944 1950 1959 1958 1951 1951 1950 1949 1950 1950 1949 1953 1964 1971 1979 1990 1994 1986 1981 1974 1969 1979 2001 2017 2029 2036 2031 2018 2009 2007 2011 2027 2048 2059 2065 2067 2057 2046 2046 2054 2064 2078 2090 2094 2094 2093 2092 2089 2093 2100 2109 2125 2141 2146 2154 2166 2171 2175 2184 2188 2182 2175 2171 2162 2158 2156 2149 2137 2133 2127 2118 2117 2118 2112 2101 2088 2067 2046 2028 2010 1991 1982 1980 1972 1962 1957 1948 1938 1935 1937 1936 1938 1942 1941 1941 1942 1941 1939 1941 1940 1936 1939 1944 1942 1941 1948 1957 1967 1979 1988 1995 2005 2016 2019 2024 2033 2037 2035 2035 2036 2034 2035 2036 2032 2026 2024 2018 2011 2005 1996 1983 1975 1968 1958 1948 1945 1945 1941 1942 1939 1936 1940 1946 1944 1941 1946 1944 1940 1943 1938 1939 1943 1942 1941 1944 1943 1941 1944 1941 1932 1919 1898 1869 1846 1829 1821 1847 1916 1994 2056 2132 2222 2310 2399 2487 2562 2628 2688 2718 2701 2649 2581 2500 2414 2321 2217 2108 2010 1914 1821 1739 1684 1673 1716 1771 1805 1843 1897 1935 1944 1950 1959 1958 1951 1951 1950 1949 1950 1950 1949 1953 1964 1971 1979 1990 1994 1986 1981 1974 1969 1979 2001 2017 2029 2036 2031 2018 2009 2007 2011 2027 2048 2059 2065 2067 2057 2046 2046 2054 2064 2078 2090 2094 2094 2093 2092 2089 2093 2100 2109 2125 2141 2146 2154 2166 2171 2175 2184 2188 2182 2175 2171 2162 2158 2156 2149 2137 2133 2127 2118 2117 2118 2112 2101 2088 2067 2046 2028 2010 1991 1982 1980 1972 1962 1957 1948 1938 1935 1937 1936 1938 1942 1941 1941 1942 1941 1939 1941 1940 1936 1939 1944 1942 1941 1948 1957 1967 1979 1988 1995 2005 2016 2019 2024 2033 2037 2035 2035 2036 2034 2035 2036 2032 2026 2024 2018 2011 2005 1996 1983 1975 1968 1958 1948 1945 1945 1941 1942 1939 1936 1940 1946 1944 1941 1946 1944 1940 1943 1938 1939 1943 1942 1941 1944 1943 1941 1944 1941 1932 1919 1898 1869 1846 1829 1821 1847 1916 1994 2056 2132 2222 2310 2399 2487 2562 2628 2688 2718 2701 2649 2581 2500 2414 2321 2217 2108 2010 1914 1821 1739 1684 1673 1716 1771 1805 1843 1897 1935 1944 1950 1959 1958 1951 1951 1950 1949 1950 1950 1949 1953 1964 1971 1979 1990 1994 1986 1981 1974 1969 1979 2001 2017 2029 2036 2031 2018 2009 2007 2011 2027 2048 2059 2065 2067 2057 2046 2046 2054 2064 2078 2090 2094 2094 2093 2092 2089 2093 2100 2109 2125 2141 2146 2154 2166 2171 2175 2184 2188 2182 2175 2171 2162 2158 2156 2149 2137 2133 2127 2118 2117 2118 2112 2101 2088 2067 2046 2028 2010 1991 1982 1980 1972 1962 1957 1948 1938 1935 1937 1936 1938 1942 1941 1941 1942 1941 1939 1941 1940 1936 1939 1944 1942 1941 1948 1957 1967 1979 1988 1995 2005 2016 2019 2024 2033 2037 2035 2035 2036 2034 2035 2036 2032 2026 2024 2018 2011 2005 1996 1983 1975 1968 1958 1948 1945 1945 1941 1942 1939 1936 1940 1946 1944 1941 1946 1944 1940 1943 1938 1939 1943 1942 1941 1944 1943 1941 1944 1941 1932 1919 1898 1869 1846 1829 1821 1847 1916 1994 2056 2132 2222 2310 2399 2487 2562 2628 2688 2718 2701 2649 2581 2500 2414 2321 2217 2108 2010 1914 1821 1739 1684 1673 1716 1771 1805 1843 1897 1935 1944 1950 1959 1958 1951 1951 1950 1949 1950 1950 1949 1953 1964 1971 1979 1990 1994 1986 1981 1974 1969 1979 2001 2017 2029 2036 2031 2018 2009 2007 2011 2027 2048 2059 2065 2067 2057 2046 2046 2054 2064 2078 2090 2094 2094 2093 2092 2089 2093 2100 2109 2125 2141 2146 2154 2166 2171 2175 2184 2188 2182 2175 2171 2162 2158 2156 2149 2137 2133 2127 2118 2117 2118 2112 2101 2088 2067 2046 2028 2010 1991 1982 1980 1972 1962 1957 1948 1938 1935 1937 1936 1938 1942 1941 1941 1942 1941 1939 1941 1940 1936 1939 1944 1942 1941 1948 1957 1967 1979 1988 1995 2005 2016 2019 2024 2033 2037 2035 2035 2036 2034 2035 2036 2032 2026 2024 2018 2011 2005 1996 1983 1975 1968 1958 1948 1945 1945 1941 1942 1939 1936 1940 1946 1944 1941 1946 1944 1940 1943 1938 1939 1943 1942 1941 1944 1943 1941 1944 1941 1932 1919 1898 1869 1846 1829 1821 1847 1916 1994 2056 2132 2222 2310 2399 2487 2562 2628 2688 2718 2701 2649 2581 2500 2414 2321 2217 2108 2010 1914 1821 1739 1684 1673 1716 1771 1805 1843 1897 1935 1944 1950 1959 1958 1951 1951 1950 1949 1950 1950 1949 1953 1964 1971 1979 1990 1994 1986 1981 1974 1969 1979 2001 2017 2029 2036 2031 2018 2009 2007 2011 2027 2048 2059 2065 2067 2057 2046 2046 2054 2064 2078 2090 2094 2094 2093 2092 2089 2093 2100 2109 2125 2141 2146 2154 2166 2171 2175 2184 2188 2182 2175 2171 2162 2158 2156 2149 2137 2133 2127 2118 2117 2118 2112 2101 2088 2067 2046 2028 2010 1991 1982 1980 1972 1962 1957 1948 1938 1935 1937 1936 1938 1942 1941 1941 1942 1941 1939 1941 1940 1936 1939 1944 1942 1941 1948 1957 1967 1979 1988 1995 2005 2016 2019 2024 2033 2037 2035 2035 2036 2034 2035 2036 2032 2026 2024 2018 2011 2005 1996 1983 1975 1968 1958 1948 1945 1945 1941 1942 1939 1936 1940 1946 1944 1941 1946 1944 1940 1943 1938 1939 1943 1942 1941 1944 1943 1941 1944 1941 1932 1919 1898 1869 1846 1829 1821 1847 1916 1994 2056 2132 2222 2310 2399 2487 2562 2628 2688 2718 2701 2649 2581 2500 2414 2321 2217 2108 2010 1914 1821 1739 1684 1673 1716 1771 1805 1843 1897 1935 1944 1950 1959 1958 1951 1951 1950 1949 1950 1950 1949 1953 1964 1971 1979 1990 1994 1986 1981 1974 1969 1979 2001 2017 2029 2036 2031 2018 2009 2007 2011 2027 2048 2059 2065 2067 2057 2046 2046 2054 2064 2078 2090 2094 2094 2093 2092 2089 2093 2100 2109 2125 2141 2146 2154 2166 2171 2175 2184 2188 2182 2175 2171 2162 2158 2156 2149 2137 2133 2127 2118 2117 2118 2112 2101 2088 2067 2046 2028 2010 1991 1982 1980 1972 1962 1957 1948 1938 1935 1937 1936 1938 1942 1941 1941 1942 1941 1939 1941 1940 1936 1939 1944 1942 1941 1948 1957 1967 1979 1988 1995 2005 2016 2019 2024 2033 2037 2035 2035 2036 2034 2035 2036 2032 2026 2024 2018 2011 2005 1996 1983 1975 1968 1958 1948 1945 1945 1941 1942 1939 1936 1940 1946 1944 1941 1946 1944 1940 1943 1938 1939 1943 1942 1941 1944 1943 1941 1944 1941 1932 1919 1898 1869 1846 1829 1821 1847 1916 1994 2056 2132 2222 2310 2399 2487 2562 2628 2688 2718 2701 2649 2581 2500 2414 2321 2217 2108 2010 1914 1821 1739 1684 1673 1716 1771 1805 1843 1897 1935 1944 1950 1959 1958 1951 1951 1950 1949 1950 1950 1949 1953 1964 1971 1979 1990 1994 1986 1981 1974 1969 1979 2001 2017 2029 2036 2031 2018 2009 2007 2011 2027 2048 2059 2065 2067 2057 2046 2046 2054 2064 2078 2090 2094 2094 2093 2092 2089 2093 2100 2109 2125 2141 2146 2154 2166 2171 2175 2184 2188 2182 2175 2171 2162 2158 2156 2149 2137 2133 2127 2118 2117 2118 2112 2101 2088 2067 2046 2028 2010 1991 1982 1980 1972 1962 1957 1948 1938 1935 1937 1936 1938 1942 1941 1941 1942 1941 1939 1941 1940 1936 1939 1944 1942 1941 1948 1957 1967 1979 1988 1995 2005 2016 2019 2024 2033 2037 2035 2035 2036 2034 2035 2036 2032 2026 2024 2018 2011 2005 1996 1983 1975 1968 1958 1948 1945 1945 1941 1942 1939 1936 1940 1946 1944 1941 1946 1944 1940 1943 1938 1939 1943 1942 1941 1944 1943 1941 1944 1941 1932 1919 1898 1869 1846 1829 1821 1847 1916 1994 2056 2132 2222 2310 2399 2487 2562 2628 2688 2718 2701 2649 2581 2500 2414 2321 2217 2108 2010 1914 1821 1739 1684 1673 1716 1771 1805 1843 1897 1935 1944 1950 1959 1958 1951 1951 1950 1949 1950 1950 1949 1953 1964 1971 1979 1990 1994 1986 1981 1974 1969 1979 2001 2017 2029 2036 2031 2018 2009 2007 2011 2027 2048 2059 2065 2067 2057 2046 2046 2054 2064 2078 2090 2094 2094 2093 2092 2089 2093 2100 2109 2125 2141 2146 2154 2166 2171 2175 2184 2188 2182 2175 2171 2162 2158 2156 2149 2137 2133 2127 2118 2117 2118 2112 2101 2088 2067 2046 2028 2010 1991 1982 1980 1972 1962 1957 1948 1938 1935 1937 1936 1938 1942 1941 1941 1942 1941 1939 1941 1940 1936 1939 1944 1942 1941 1948 1957 1967 1979 1988 1995 2005 2016 2019 2024 2033 2037 2035 2035 2036 2034 2035 2036 2032 2026 2024 2018 2011 2005 1996 1983 1975 1968 1958 1948 1945 1945 1941 1942 1939 1936 1940 1946 1944 1941 1946 1944 1940 1943 1938 1939 1943 1942 1941 1944 1943 1941 1944 1941 1932 1919 1898 1869 1846 1829 1821 1847 1916 1994 2056 2132 2222 2310 2399 2487 2562 2628 2688 2718 2701 2649 2581 2500 2414 2321 2217 2108 2010 1914 1821 1739 1684 1673 1716 1771 1805 1843 1897 1935 1944 1950 1959 1958 1951 1951 1950 1949 1950 1950 1949 1953 1964 1971 1979 1990 1994 1986 1981 1974 1969 1979 2001 2017 2029 2036 2031 2018 2009 2007 2011 2027 2048 2059 2065 2067 2057 2046 2046 2054 2064 2078 2090 2094 2094 2093 2092 2089 2093 2100 2109 2125 2141 2146 2154 2166 2171 2175 2184 2188 2182 2175 2171 2162 2158 2156 2149 2137 2133 2127 2118 2117 2118 2112 2101 2088 2067 2046 2028 2010 1991 1982 1980 1972 1962 1957 1948 1938 1935 1937 1936 1938 1942 1941 1941 1942 1941 1939 1941 1940 1936 1939 1944 1942 1941 1948 1957 1967 1979 1988 1995 2005 2016 2019 2024 2033 2037 2035 2035 2036 2034 2035 2036 2032 2026 2024 2018 2011 2005 1996 1983 1975 1968 1958 1948 1945 1945 1941 1942 1939 1936 1940 1946 1944 1941 1946 1944 1940 1943 1938 1939 1943 1942 1941 1944 1943 1941 1944 1941 1932 1919 1898 1869 1846 1829 1821 1847 1916 1994 2056 2132 2222 2310 2399 2487 2562 2628 2688 2718 2701 2649 2581 2500 2414 2321 2217 2108 2010 1914 1821 1739 1684 1673 1716 1771 1805 1843 1897 1935 1944 1950 1959 1958 1951 1951 1950 1949 1950 1950 1949 1953 1964 1971 1979 1990 1994 1986 1981 1974 1969 1979 2001 2017 2029 2036 2031 2018 2009 2007 2011 2027 2048 2059 2065 2067 2057 2046 2046 2054 2064 2078 2090 2094 2094 2093 2092 2089 2093 2100 2109 2125 2141 2146 2154 2166 2171 2175 2184 2188 2182 2175 2171 2162 2158 2156 2149 2137 2133 2127 2118 2117 2118 2112 2101 2088 2067 2046 2028 2010 1991 1982 1980 1972 1962 1957 1948 1938 1935 1937 1936 1938 1942 1941 1941 1942 1941 1939 1941 1940 1936 1939 1944 1942 1941 1948 1957 1967 1979 1988 1995 2005 2016 2019 2024 2033 2037 2035 2035 2036 2034 2035 2036 2032 2026 2024 2018 2011 2005 1996 1983 1975 1968 1958 1948 1945 1945 1941 1942 1939 1936 1940 1946 1944 1941 1946 1944 1940 1943 1938 1939 1943 1942 1941 1944 1943 1941 1944 1941 1932 1919 1898 1869 1846 1829 1821 1847 1916 1994 2056 2132 2222 2310 2399 2487 2562 2628 2688 2718 2701 2649 2581 2500 2414 2321 2217 2108 2010 1914 1821 1739 1684 1673 1716 1771 1805 1843 1897 1935 1944 1950 1959 1958 1951 1951 1950 1949 1950 1950 1949 1953 1964 1971 1979 1990 1994 1986 1981 1974 1969 1979 2001 2017 2029 2036 2031 2018 2009 2007 2011 2027 2048 2059 2065 2067 2057 2046 2046 2054 2064 2078 2090 2094 2094 2093 2092 2089 2093 2100 2109 2125 2141 2146 2154 2166 2171 2175 2184 2188 2182 2175 2171 2162 2158 2156 2149 2137 2133 2127 2118 2117 2118 2112 2101 2088 2067 2046 2028 2010 1991 1982 1980 1972 1962 1957 1948 1938 1935 1937 1936 1938 1942 1941 1941 1942 1941 1939 1941 1940 1936 1939 1944 1942 1941 1948 1957 1967 1979 1988 1995 2005 2016 2019 2024 2033 2037 2035 2035 2036 2034 2035 2036 2032 2026 2024 2018 2011 2005 1996 1983 1975 1968 1958 1948 1945 1945 1941 1942 1939 1936 1940 1946 1944 1941 1946 1944 1940 1943 1938 1939 1943 1942 1941 1944 1943 1941 1944 1941 1932 1919 1898 1869 1846 1829 1821 1847 1916 1994 2056 2132 2222 2310 2399 2487 2562 2628 2688 2718 2701 2649 2581 2500 2414 2321 2217 2108 2010 1914 1821 1739 1684 1673 1716 1771 1805 1843 1897 1935 1944 1950 1959 1958 1951 1951 1950 1949 1950 1950 1949 1953 1964 1971 1979 1990 1994 1986 1981 1974 1969 1979 2001 2017 2029 2036 2031 2018 2009 2007 2011 2027 2048 2059 2065 2067 2057 2046 2046 2054 2064 2078 2090 2094 2094 2093 2092 2089 2093 2100 2109 2125 2141 2146 2154 2166 2171 2175 2184 2188 2182 2175 2171 2162 2158 2156 2149 2137 2133 2127 2118 2117 2118 2112 2101 2088 2067 2046 2028 2010 1991 1982 1980 1972 1962 1957 1948 1938 1935 1937 1936 1938 1942 1941 1941 1942 1941 1939 1941 1940 1936 1939 1944 1942 1941 1948 1957 1967 1979 1988 1995 2005 2016 2019 2024 2033 2037 2035 2035 2036 2034 2035 2036 2032 2026 2024 2018 2011 2005 1996 1983 1975 1968 1958 1948 1945 1945 1941 1942 1939 1936 1940 1946 1944 1941 1946 1944 1940 1943 1938 1939 1943 1942 1941 1944 1943 1941 1944 1941 1932 1919 1898 1869 1846 1829 1821 1847 1916 1994 2056 2132 2222 2310 2399 2487 2562 2628 2688 2718 2701 2649 2581 2500 2414 2321 2217 2108 2010 1914 1821 1739 1684 1673 1716 1771 1805 1843 1897 1935 1944 1950 1959 1958 1951 1951 1950 1949 1950 1950 1949 1953 1964 1971 1979 1990 1994 1986 1981 1974 1969 1979 2001 2017 2029 2036 2031 2018 2009 2007 2011 2027 2048 2059 2065 2067 2057 2046 2046 2054 2064 2078 2090 2094 2094 2093 2092 2089 2093 2100 2109 2125 2141 2146 2154 2166 2171 2175 2184 2188 2182 2175 2171 2162 2158 2156 2149 2137 2133 2127 2118 2117 2118 2112 2101 2088 2067 2046 2028 2010 1991 1982 1980 1972 1962 1957 1948 1938 1935 1937 1936 1938 1942 1941 1941 1942 1941 1939 1941 1940 1936 1939 1944 1942 1941 1948 1957 1967 1979 1988 1995 2005 2016 2019 2024 2033 2037 2035 2035 2036 2034 2035 2036 2032 2026 2024 2018 2011 2005 1996 1983 1975 1968 1958 1948 1945 1945 1941 1942 1939 1936 1940 1946 1944 1941 1946 1944 1940 1943 1938 1939 1943 1942 1941 1944 1943 1941 1944 1941 1932 1919 1898 1869 1846 1829 1821 1847 1916 1994 2056 2132 2222 2310 2399 2487 2562 2628 2688 2718 2701 2649 2581 2500 2414 2321 2217 2108 2010 1914 1821 1739 1684 1673 1716 1771 1805 1843 1897 1935 1944 1950 1959 1958 1951 1951 1950 1949 1950 1950 1949 1953 1964 1971 1979 1990 1994 1986 1981 1974 1969 1979 2001 2017 2029 2036 2031 2018 2009 2007 2011 2027 2048 2059 2065 2067 2057 2046 2046 2054 2064 2078 2090 2094 2094 2093 2092 2089 2093 2100 2109 2125 2141 2146 2154 2166 2171 2175 2184 2188 2182 2175 2171 2162 2158 2156 2149 2137 2133 2127 2118 2117 2118 2112 2101 2088 2067 2046 2028 2010 1991 1982 1980 1972 1962 1957 1948 1938 1935 1937 1936 1938 1942 1941 1941 1942 1941 1939 1941 1940 1936 1939 1944 1942 1941 1948 1957 1967 1979 1988 1995 2005 2016 2019 2024 2033 2037 2035 2035 2036 2034 2035 2036 2032 2026 2024 2018 2011 2005 1996 1983 1975 1968 1958 1948 1945 1945 1941 1942 1939 1936 1940 1946 1944 1941 1946 1944 1940 1943 1938 1939 1943 1942 1941 1944 1943 1941 1944 1941 1932 1919 1898 1869 1846 1829 1821 1847 1916 1994 2056 2132 2222 2310 2399 2487 2562 2628 2688 2718 2701 2649 2581 2500 2414 2321 2217 2108 2010 1914 1821 1739 1684 1673 1716 1771 1805 1843 1897 1935 1944 1950 1959 1958 1951 1951 1950 1949 1950 1950 1949 1953 1964 1971 1979 1990 1994 1986 1981 1974 1969 1979 2001 2017 2029 2036 2031 2018 2009 2007 2011 2027 2048 2059 2065 2067 2057 2046 2046 2054 2064 2078 2090 2094 2094 2093 2092 2089 2093 2100 2109 2125 2141 2146 2154 2166 2171 2175 2184 2188 2182 2175 2171 2162 2158 2156 2149 2137 2133 2127 2118 2117 2118 2112 2101 2088 2067 2046 2028 2010 1991 1982 1980 1972 1962 1957 1948 1938 1935 1937 1936 1938 1942 1941 1941 1942 1941 1939 1941 1940 1936 1939 1944 1942 1941 1948 1957 1967 1979 1988 1995 2005 2016 2019 2024 2033 2037 2035 2035 2036 2034 2035 2036 2032 2026 2024 2018 2011 2005 1996 1983 1975 1968 1958 1948 1945 1945 1941 1942 1939 1936 1940 1946 1944 1941 1946 1944 1940 1943 1938 1939 1943 1942 1941 1944 1943 1941 1944 1941 1932 1919 1898 1869 1846 1829 1821 1847 1916 1994 2056 2132 2222 2310 2399 2487 2562 2628 2688 2718 2701 2649 2581 2500 2414 2321 2217 2108 2010 1914 1821 1739 1684 1673 1716 1771 1805 1843 1897 1935 1944 1950 1959 1958 1951 1951 1950 1949 1950 1950 1949 1953 1964 1971 1979 1990 1994 1986 1981 1974 1969 1979 2001 2017 2029 2036 2031 2018 2009 2007 2011 2027 2048 2059 2065 2067 2057 2046 2046 2054 2064 2078 2090 2094 2094 2093 2092 2089 2093 2100 2109 2125 2141 2146 2154 2166 2171 2175 2184 2188 2182 2175 2171 2162 2158 2156 2149 2137 2133 2127 2118 2117 2118 2112 2101 2088 2067 2046 2028 2010 1991 1982 1980 1972 1962 1957 1948 1938 1935 1937 1936 1938 1942 1941 1941 1942 1941 1939 1941 1940 1936 1939 1944 1942 1941 1948 1957 1967 1979 1988 1995 2005 2016 2019 2024 2033 2037 2035 2035 2036 2034 2035 2036 2032 2026 2024 2018 2011 2005 1996 1983 1975 1968 1958 1948 1945 1945 1941 1942 1939 1936 1940 1946 1944 1941 1946 1944 1940 1943 1938 1939 1943 1942 1941 1944 1943 1941 1944 1941 1932 1919 1898 1869 1846 1829 1821 1847 1916 1994 2056 2132 2222 2310 2399 2487 2562 2628 2688 2718 2701 2649 2581 2500 2414 2321 2217 2108 2010 1914 1821 1739 1684 1673 1716 1771 1805 1843 1897 1935 1944 1950 1959 1958 1951 1951 1950 1949 1950 1950 1949 1953 1964 1971 1979 1990 1994 1986 1981 1974 1969 1979 2001 2017 2029 2036 2031 2018 2009 2007 2011 2027 2048 2059 2065 2067 2057 2046 2046 2054 2064 2078 2090 2094 2094 2093 2092 2089 2093 2100 2109 2125 2141 2146 2154 2166 2171 2175 2184 2188 2182 2175 2171 2162 2158 2156 2149 2137 2133 2127 2118 2117 2118 2112 2101 2088 2067 2046 2028 2010 1991 1982 1980 1972 1962 1957 1948 1938 1935 1937 1936 1938 1942 1941 1941 1942 1941 1939 1941 1940 1936 1939 1944 1942 1941 1948 1957 1967 1979 1988 1995 2005 2016 2019 2024 2033 2037 2035 2035 2036 2034 2035 2036 2032 2026 2024 2018 2011 2005 1996 1983 1975 1968 1958 1948 1945 1945 1941 1942 1939 1936 1940 1946 1944 1941 1946 1944 1940 1943 1938 1939 1943 1942 1941 1944 1943 1941 1944 1941 1932 1919 1898 1869 1846 1829 1821 1847 1916 1994 2056 2132 2222 2310 2399 2487 2562 2628 2688 2718 2701 2649 2581 2500 2414 2321 2217 2108 2010 1914 1821 1739 1684 1673 1716 1771 1805 1843 1897 1935 1944 1950 1959 1958 1951 1951 1950 1949 1950 1950 1949 1953 1964 1971 1979 1990 1994 1986 1981 1974 1969 1979 2001 2017 2029 2036 2031 2018 2009 2007 2011 2027 2048 2059 2065 2067 2057 2046 2046 2054 2064 2078 2090 2094 2094 2093 2092 2089 2093 2100 2109 2125 2141 2146 2154 2166 2171 2175 2184 2188 2182 2175 2171 2162 2158 2156 2149 2137 2133 2127 2118 2117 2118 2112 2101 2088 2067 2046 2028 2010 1991 1982 1980 1972 1962 1957 1948 1938 1935 1937 1936 1938 1942 1941 1941 1942 1941 1939 1941 1940 1936 1939 1944 1942 1941 1948 1957 1967 1979 1988 1995 2005 2016 2019 2024 2033 2037 2035 2035 2036 2034 2035 2036 2032 2026 2024 2018 2011 2005 1996 1983 1975 1968 1958 1948 1945 1945 1941 1942 1939 1936 1940 1946 1944 1941 1946 1944 1940 1943 1938 1939 1943 1942 1941 1944 1943 1941 1944 1941 1932 1919 1898 1869 1846 1829 1821 1847 1916 1994 2056 2132 2222 2310 2399 2487 2562 2628 2688 2718 2701 2649 2581 2500 2414 2321 2217 2108 2010 1914 1821 1739 1684 1673 1716 1771 1805 1843 1897 1935 1944 1950 1959 1958 1951 1951 1950 1949 1950 1950 1949 1953 1964 1971 1979 1990 1994 1986 1981 1974 1969 1979 2001 2017 2029 2036 2031 2018 2009 2007 2011 2027 2048 2059 2065 2067 2057 2046 2046 2054 2064 2078 2090 2094 2094 2093 2092 2089 2093 2100 2109 2125 2141 2146 2154 2166 2171 2175 2184 2188 2182 2175 2171 2162 2158 2156 2149 2137 2133 2127 2118 2117 2118 2112 2101 2088 2067 2046 2028 2010 1991 1982 1980 1972 1962 1957 1948 1938 1935 1937 1936 1938 1942 1941 1941 1942 1941 1939 1941 1940 1936 1939 1944 1942 1941 1948 1957 1967 1979 1988 1995 2005 2016 2019 2024 2033 2037 2035 2035 2036 2034 2035 2036 2032 2026 2024 2018 2011 2005 1996 1983 1975 1968 1958 1948 1945 1945 1941 1942 1939 1936 1940 1946 1944 1941 1946 1944 1940 1943 1938 1939 1943 1942 1941 1944 1943 1941 1944 1941 1932 1919 1898 1869 1846 1829 1821 1847 1916 1994 2056 2132 2222 2310 2399 2487 2562 2628 2688 2718 2701 2649 2581 2500 2414 2321 2217 2108 2010 1914 1821 1739 1684 1673 1716 1771 1805 1843 1897 1935 1944 1950 1959 1958 1951 1951 1950 1949 1950 1950 1949 1953 1964 1971 1979 1990 1994 1986 1981 1974 1969 1979 2001 2017 2029 2036 2031 2018 2009 2007 2011 2027 2048 2059 2065 2067 2057 2046 2046 2054 2064 2078 2090 2094 2094 2093 2092 2089 2093 2100 2109 2125 2141 2146 2154 2166 2171 2175 2184 2188 2182 2175 2171 2162 2158 2156 2149 2137 2133 2127 2118 2117 2118 2112 2101 2088 2067 2046 2028 2010 1991 1982 1980 1972 1962 1957 1948 1938 1935 1937 1936 1938 1942 1941 1941 1942 1941 1939 1941 1940 1936 1939 1944 1942 1941 1948 1957 1967 1979 1988 1995 2005 2016 2019 2024 2033 2037 2035 2035 2036 2034 2035 2036 2032 2026 2024 2018 2011 2005 1996 1983 1975 1968 1958 1948 1945 1945 1941 1942 1939 1936 1940 1946 1944 1941 1946 1944 1940 1943 1938 1939 1943 1942 1941 1944 1943 1941 1944 1941 1932 1919 1898 1869 1846 1829 1821 1847 1916 1994 2056 2132 2222 2310 2399 2487 2562 2628 2688 2718 2701 2649 2581 2500 2414 2321 2217 2108 2010 1914 1821 1739 1684 1673 1716 1771 1805 1843 1897 1935 1944 1950 1959 1958 1951 1951 1950 1949 1950 1950 1949 1953 1964 1971 1979 1990 1994 1986 1981 1974 1969 1979 2001 2017 2029 2036 2031 2018 2009 2007 2011 2027 2048 2059 2065 2067 2057 2046 2046 2054 2064 2078 2090 2094 2094 2093 2092 2089 2093 2100 2109 2125 2141 2146 2154 2166 2171 2175 2184 2188 2182 2175 2171 2162 2158 2156 2149 2137 2133 2127 2118 2117 2118 2112 2101 2088 2067 2046 2028 2010 1991 1982 1980 1972 1962 1957 1948 1938 1935 1937 1936 1938 1942 1941 1941 1942 1941 1939 1941 1940 1936 1939 1944 1942 1941 1948 1957 1967 1979 1988 1995 2005 2016 2019 2024 2033 2037 2035 2035 2036 2034 2035 2036 2032 2026 2024 2018 2011 2005 1996 1983 1975 1968 1958 1948 1945 1945 1941 1942 1939 1936 1940 1946 1944 1941 1946 1944 1940 1943 1938 1939 1943 1942 1941 1944 1943 1941 1944 1941 1932 1919 1898 1869 1846 1829 1821 1847 1916 1994 2056 2132 2222 2310 2399 2487 2562 2628 2688 2718 2701 2649 2581 2500 2414 2321 2217 2108 2010 1914 1821 1739 1684 1673 1716 1771 1805 1843 1897 1935 1944 1950 1959 1958 1951 1951 1950 1949 1950 1950 1949 1953 1964 1971 1979 1990 1994 1986 1981 1974 1969 1979 2001 2017 2029 2036 2031 2018 2009 2007 2011 2027 2048 2059 2065 2067 2057 2046 2046 2054 2064 2078 2090 2094 2094 2093 2092 2089 2093 2100 2109 2125 2141 2146 2154 2166 2171 2175 2184 2188 2182 2175 2171 2162 2158 2156 2149 2137 2133 2127 2118 2117 2118 2112 2101 2088 2067 2046 2028 2010 1991 1982 1980 1972 1962 1957 1948 1938 1935 1937 1936 1938 1942 1941 1941 1942 1941 1939 1941 1940 1936 1939 1944 1942 1941 1948 1957 1967 1979 1988 1995 2005 2016 2019 2024 2033 2037 2035 2035 2036 2034 2035 2036 2032 2026 2024 2018 2011 2005 1996 1983 1975 1968 1958 1948 1945 1945 1941 1942 1939 1936 1940 1946 1944 1941 1946 1944 1940 1943 1938 1939 1943 1942 1941 1944 1943 1941 1944 1941 1932 1919 1898 1869 1846 1829 1821 1847 1916 1994 2056 2132 2222 2310 2399 2487 2562 2628 2688 2718 2701 2649 2581 2500 2414 2321 2217 2108 2010 1914 1821 1739 1684 1673 1716 1771 1805 1843 1897 1935 1944 1950 1959 1958 1951 1951 1950 1949 1950 1950 1949 1953 1964 1971 1979 1990 1994 1986 1981 1974 1969 1979 2001 2017 2029 2036 2031 2018 2009 2007 2011 2027 2048 2059 2065 2067 2057 2046 2046 2054 2064 2078 2090 2094 2094 2093 2092 2089 2093 2100 2109 2125 2141 2146 2154 2166 2171 2175 2184 2188 2182 2175 2171 2162 2158 2156 2149 2137 2133 2127 2118 2117 2118 2112 2101 2088 2067 2046 2028 2010 1991 1982 1980 1972 1962 1957 1948 1938 1935 1937 1936 1938 1942 1941 1941 1942 1941 1939 1941 1940 1936 1939 1944 1942 1941 1948 1957 1967 1979 1988 1995 2005 2016 2019 2024 2033 2037 2035 2035 2036 2034 2035 2036 2032 2026 2024 2018 2011 2005 1996 1983 1975 1968 1958 1948 1945 1945 1941 1942 1939 1936 1940 1946 1944 1941 1946 1944 1940 1943 1938 1939 1943 1942 1941 1944 1943 1941 1944 1941 1932 1919 1898 1869 1846 1829 1821 1847 1916 1994 2056 2132 2222 2310 2399 2487 2562 2628 2688 2718 2701 2649 2581 2500 2414 2321 2217 2108 2010 1914 1821 1739 1684 1673 1716 1771 1805 1843 1897 1935 1944 1950 1959 1958 1951 1951 1950 1949 1950 1950 1949 1953 1964 1971 1979 1990 1994 1986 1981 1974 1969 1979 2001 2017 2029 2036 2031 2018 2009 2007 2011 2027 2048 2059 2065 2067 2057 2046 2046 2054 2064 2078 2090 2094 2094 2093 2092 2089 2093 2100 2109 2125 2141 2146 2154 2166 2171 2175 2184 2188 2182 2175 2171 2162 2158 2156 2149 2137 2133 2127 2118 2117 2118 2112 2101 2088 2067 2046 2028 2010 1991 1982 1980 1972 1962 1957 1948 1938 1935 1937 1936 1938 1942 1941 1941 1942 1941 1939 1941 1940 1936 1939 1944 1942 1941 1948 1957 1967 1979 1988 1995 2005 2016 2019 2024 2033 2037 2035 2035 2036 2034 2035 2036 2032 2026 2024 2018 2011 2005 1996 1983 1975 1968 1958 1948 1945 1945 1941 1942 1939 1936 1940 1946 1944 1941 1946 1944 1940 1943 1938 1939 1943 1942 1941 1944 1943 1941 1944 1941 1932 1919 1898 1869 1846 1829 1821 1847 1916 1994 2056 2132 2222 2310 2399 2487 2562 2628 2688 2718 2701 2649 2581 2500 2414 2321 2217 2108 2010 1914 1821 1739 1684 1673 1716 1771 1805 1843 1897 1935 1944 1950 1959 1958 1951 1951 1950 1949 1950 1950 1949 1953 1964 1971 1979 1990 1994 1986 1981 1974 1969 1979 2001 2017 2029 2036 2031 2018 2009 2007 2011 2027 2048 2059 2065 2067 2057 2046 2046 2054 2064 2078 2090 2094 2094 2093 2092 2089 2093 2100 2109 2125 2141 2146 2154 2166 2171 2175 2184 2188 2182 2175 2171 2162 2158 2156 2149 2137 2133 2127 2118 2117 2118 2112 2101 2088 2067 2046 2028 2010 1991 1982 1980 1972 1962 1957 1948 1938 1935 1937 1936 1938 1942 1941 1941 1942 1941 1939 1941 1940 1936 1939 1944 1942 1941 1948 1957 1967 1979 1988 1995 2005 2016 2019 2024 2033 2037 2035 2035 2036 2034 2035 2036 2032 2026 2024 2018 2011 2005 1996 1983 1975 1968 1958 1948 1945 1945 1941 1942 1939 1936 1940 1946 1944 1941 1946 1944 1940 1943 1938 1939 1943 1942 1941 1944 1943 1941 1944 1941 1932 1919 1898 1869 1846 1829 1821 1847 1916 1994 2056 2132 2222 2310 2399 2487 2562 2628 2688 2718 2701 2649 2581 2500 2414 2321 2217 2108 2010 1914 1821 1739 1684 1673 1716 1771 1805 1843 1897 1935 1944 1950 1959 1958 1951 1951 1950 1949 1950 1950 1949 1953 1964 1971 1979 1990 1994 1986 1981 1974 1969 1979 2001 2017 2029 2036 2031 2018 2009 2007 2011 2027 2048 2059 2065 2067 2057 2046 2046 2054 2064 2078 2090 2094 2094 2093 2092 2089 2093 2100 2109 2125 2141 2146 2154 2166 2171 2175 2184 2188 2182 2175 2171 2162 2158 2156 2149 2137 2133 2127 2118 2117 2118 2112 2101 2088 2067 2046 2028 2010 1991 1982 1980 1972 1962 1957 1948 1938 1935 1937 1936 1938 1942 1941 1941 1942 1941 1939 1941 1940 1936 1939 1944 1942 1941 1948 1957 1967 1979 1988 1995 2005 2016 2019 2024 2033 2037 2035 2035 2036 2034 2035 2036 2032 2026 2024 2018 2011 2005 1996 1983 1975 1968 1958 1948 1945 1945 1941 1942 1939 1936 1940 1946 1944 1941 1946 1944 1940 1943 1938 1939 1943 1942 1941 1944 1943 1941 1944 1941 1932 1919 1898 1869 1846 1829 1821 1847 1916 1994 2056 2132 2222 2310 2399 2487 2562 2628 2688 2718 2701 2649 2581 2500 2414 2321 2217 2108 2010 1914 1821 1739 1684 1673 1716 1771 1805 1843 1897 1935 1944 1950 1959 1958 1951 1951 1950 1949 1950 1950 1949 1953 1964 1971 1979 1990 1994 1986 1981 1974 1969 1979 2001 2017 2029 2036 2031 2018 2009 2007 2011 2027 2048 2059 2065 2067 2057 2046 2046 2054 2064 2078 2090 2094 2094 2093 2092 2089 2093 2100 2109 2125 2141 2146 2154 2166 2171 2175 2184 2188 2182 2175 2171 2162 2158 2156 2149 2137 2133 2127 2118 2117 2118 2112 2101 2088 2067 2046 2028 2010 1991 1982 1980 1972 1962 1957 1948 1938 1935 1937 1936 1938 1942 1941 1941 1942 1941 1939 1941 1940 1936 1939 1944 1942 1941 1948 1957 1967 1979 1988 1995 2005 2016 2019 2024 2033 2037 2035 2035 2036 2034 2035 2036 2032 2026 2024 2018 2011 2005 1996 1983 1975 1968 1958 1948 1945 1945 1941 1942 1939 1936 1940 1946 1944 1941 1946 1944 1940 1943 1938 1939 1943 1942 1941 1944 1943 1941 1944 1941 1932 1919 1898 1869 1846 1829 1821 1847 1916 1994 2056 2132 2222 2310 2399 2487 2562 2628 2688 2718 2701 2649 2581 2500 2414 2321 2217 2108 2010 1914 1821 1739 1684 1673 1716 1771 1805 1843 1897 1935 1944 1950 1959 1958 1951 1951 1950 1949 1950 1950 1949 1953 1964 1971 1979 1990 1994 1986 1981 1974 1969 1979 2001 2017 2029 2036 2031 2018 2009 2007 2011 2027 2048 2059 2065 2067 2057 2046 2046 2054 2064 2078 2090 2094 2094 2093 2092 2089 2093 2100 2109 2125 2141 2146 2154 2166 2171 2175 2184 2188 2182 2175 2171 2162 2158 2156 2149 2137 2133 2127 2118 2117 2118 2112 2101 2088 2067 2046 2028 2010 1991 1982 1980 1972 1962 1957 1948 1938 1935 1937 1936 1938 1942 1941 1941 1942 1941 1939 1941 1940 1936 1939 1944 1942 1941 1948 1957 1967 1979 1988 1995 2005 2016 2019 2024 2033 2037 2035 2035 2036 2034 2035 2036 2032 2026 2024 2018 2011 2005 1996 1983 1975 1968 1958 1948 1945 1945 1941 1942 1939 1936 1940 1946 1944 1941 1946 1944 1940 1943 1938 1939 1943 1942 1941 1944 1943 1941 1944 1941 1932 1919 1898 1869 1846 1829 1821 1847 1916 1994 2056 2132 2222 2310 2399 2487 2562 2628 2688 2718 2701 2649 2581 2500 2414 2321 2217 2108 2010 1914 1821 1739 1684 1673 1716 1771 1805 1843 1897 1935 1944 1950 1959 1958 1951 1951 1950 1949 1950 1950 1949 1953 1964 1971 1979 1990 1994 1986 1981 1974 1969 1979 2001 2017 2029 2036 2031 2018 2009 2007 2011 2027 2048 2059 2065 2067 2057 2046 2046 2054 2064 2078 2090 2094 2094 2093 2092 2089 2093 2100 2109 2125 2141 2146 2154 2166 2171 2175 2184 2188 2182 2175 2171 2162 2158 2156 2149 2137 2133 2127 2118 2117 2118 2112 2101 2088 2067 2046 2028 2010 1991 1982 1980 1972 1962 1957 1948 1938 1935 1937 1936 1938 1942 1941 1941 1942 1941 1939 1941 1940 1936 1939 1944 1942 1941 1948 1957 1967 1979 1988 1995 2005 2016 2019 2024 2033 2037 2035 2035 2036 2034 2035 2036 2032 2026 2024 2018 2011 2005 1996 1983 1975 1968 1958 1948 1945 1945 1941 1942 1939 1936 1940 1946 1944 1941 1946 1944 1940 1943 1938 1939 1943 1942 1941 1944 1943 1941 1944 1941 1932 1919 1898 1869 1846 1829 1821 1847 1916 1994 2056 2132 2222 2310 2399 2487 2562 2628 2688 2718 2701 2649 2581 2500 2414 2321 2217 2108 2010 1914 1821 1739 1684 1673 1716 1771 1805 1843 1897 1935 1944 1950 1959 1958 1951 1951 1950 1949 1950 1950 1949 1953 1964 1971 1979 1990 1994 1986 1981 1974 1969 1979 2001 2017 2029 2036 2031 2018 2009 2007 2011 2027 2048 2059 2065 2067 2057 2046 2046 2054 2064 2078 2090 2094 2094 2093 2092 2089 2093 2100 2109 2125 2141 2146 2154 2166 2171 2175 2184 2188 2182 2175 2171 2162 2158 2156 2149 2137 2133 2127 2118 2117 2118 2112 2101 2088 2067 2046 2028 2010 1991 1982 1980 1972 1962 1957 1948 1938 1935 1937 1936 1938 1942 1941 1941 1942 1941 1939 1941 1940 1936 1939 1944 1942 1941 1948 1957 1967 1979 1988 1995 2005 2016 2019 2024 2033 2037 2035 2035 2036 2034 2035 2036 2032 2026 2024 2018 2011 2005 1996 1983 1975 1968 1958 1948 1945 1945 1941 1942 1939 1936 1940 1946 1944 1941 1946 1944 1940 1943 1938 1939 1943 1942 1941 1944 1943 1941 1944 1941 1932 1919 1898 1869 1846 1829 1821 1847 1916 1994 2056 2132 2222 2310 2399 2487 2562 2628 2688 2718 2701 2649 2581 2500 2414 2321 2217 2108 2010 1914 1821 1739 1684 1673 1716 1771 1805 1843 1897 1935 1944 1950 1959 1958 1951 1951 1950 1949 1950 1950 1949 1953 1964 1971 1979 1990 1994 1986 1981 1974 1969 1979 2001 2017 2029 2036 2031 2018 2009 2007 2011 2027 2048 2059 2065 2067 2057 2046 2046 2054 2064 2078 2090 2094 2094 2093 2092 2089 2093 2100 2109 2125 2141 2146 2154 2166 2171 2175 2184 2188 2182 2175 2171 2162 2158 2156 2149 2137 2133 2127 2118 2117 2118 2112 2101 2088 2067 2046 2028 2010 1991 1982 1980 1972 1962 1957 1948 1938 1935 1937 1936 1938 1942 1941 1941 1942 1941 1939 1941 1940 1936 1939 1944 1942 1941 1948 1957 1967 1979 1988 1995 2005 2016 2019 2024 2033 2037 2035 2035 2036 2034 2035 2036 2032 2026 2024 2018 2011 2005 1996 1983 1975 1968 1958 1948 1945 1945 1941 1942 1939 1936 1940 1946 1944 1941 1946 1944 1940 1943 1938 1939 1943 1942 1941 1944 1943 1941 1944 1941 1932 1919 1898 1869 1846 1829 1821 1847 1916 1994 2056 2132 2222 2310 2399 2487 2562 2628 2688 2718 2701 2649 2581 2500 2414 2321 2217 2108 2010 1914 1821 1739 1684 1673 1716 1771 1805 1843 1897 1935 1944 1950 1959 1958 1951 1951 1950 1949 1950 1950 1949 1953 1964 1971 1979 1990 1994 1986 1981 1974 1969 1979 2001 2017 2029 2036 2031 2018 2009 2007 2011 2027 2048 2059 2065 2067 2057 2046 2046 2054 2064 2078 2090 2094 2094 2093 2092 2089 2093 2100 2109 2125 2141 2146 2154 2166 2171 2175 2184 2188 2182 2175 2171 2162 2158 2156 2149 2137 2133 2127 2118 2117 2118 2112 2101 2088 2067 2046 2028 2010 1991 1982 1980 1972 1962 1957 1948 1938 1935 1937 1936 1938 1942 1941 1941 1942 1941 1939 1941 1940 1936 1939 1944 1942 1941 1948 1957 1967 1979 1988 1995 2005 2016 2019 2024 2033 2037 2035 2035 2036 2034 2035 2036 2032 2026 2024 2018 2011 2005 1996 1983 1975 1968 1958 1948 1945 1945 1941 1942 1939 1936 1940 1946 1944 1941 1946 1944 1940 1943 1938 1939 1943 1942 1941 1944 1943 1941 1944 1941 1932 1919 1898 1869 1846 1829 1821 1847 1916 1994 2056 2132 2222 2310 2399 2487 2562 2628 2688 2718 2701 2649 2581 2500 2414 2321 2217 2108 2010 1914 1821 1739 1684 1673 1716 1771 1805 1843 1897 1935 1944 1950 1959 1958 1951 1951 1950 1949 1950 1950 1949 1953 1964 1971 1979 1990 1994 1986 1981 1974 1969 1979 2001 2017 2029 2036 2031 2018 2009 2007 2011 2027 2048 2059 2065 2067 2057 2046 2046 2054 2064 2078 2090 2094 2094 2093 2092 2089 2093 2100 2109 2125 2141 2146 2154 2166 2171 2175 2184 2188 2182 2175 2171 2162 2158 2156 2149 2137 2133 2127 2118 2117 2118 2112 2101 2088 2067 2046 2028 2010 1991 1982 1980 1972 1962 1957 1948 1938 1935 1937 1936 1938 1942 1941 1941 1942 1941 1939 1941 1940 1936 1939 1944 1942 1941 1948 1957 1967 1979 1988 1995 2005 2016 2019 2024 2033 2037 2035 2035 2036 2034 2035 2036 2032 2026 2024 2018 2011 2005 1996 1983 1975 1968 1958 1948 1945 1945 1941 1942 1939 1936 1940 1946 1944 1941 1946 1944 1940 1943 1938 1939 1943 1942 1941 1944 1943 1941 1944 1941 1932 1919 1898 1869 1846 1829 1821 1847 1916 1994 2056 2132 2222 2310 2399 2487 2562 2628 2688 2718 2701 2649 2581 2500 2414 2321 2217 2108 2010 1914 1821 1739 1684 1673 1716 1771 1805 1843 1897 1935 1944 1950 1959 1958 1951 1951 1950 1949 1950 1950 1949 1953 1964 1971 1979 1990 1994 1986 1981 1974 1969 1979 2001 2017 2029 2036 2031 2018 2009 2007 2011 2027 2048 2059 2065 2067 2057 2046 2046 2054 2064 2078 2090 2094 2094 2093 2092 2089 2093 2100 2109 2125 2141 2146 2154 2166 2171 2175 2184 2188 2182 2175 2171 2162 2158 2156 2149 2137 2133 2127 2118 2117 2118 2112 2101 2088 2067 2046 2028 2010 1991 1982 1980 1972 1962 1957 1948 1938 1935 1937 1936 1938 1942 1941 1941 1942 1941 1939 1941 1940 1936 1939 1944 1942 1941 1948 1957 1967 1979 1988 1995 2005 2016 2019 2024 2033 2037 2035 2035 2036 2034 2035 2036 2032 2026 2024 2018 2011 2005 1996 1983 1975 1968 1958 1948 1945 1945 1941 1942 1939 1936 1940 1946 1944 1941 1946 1944 1940 1943 1938 1939 1943 1942 1941 1944 1943 1941 1944 1941 1932 1919 1898 1869 1846 1829 1821 1847 1916 1994 2056 2132 2222 2310 2399 2487 2562 2628 2688 2718 2701 2649 2581 2500 2414 2321 2217 2108 2010 1914 1821 1739 1684 1673 1716 1771 1805 1843 1897 1935 1944 1950 1959 1958 1951 1951 1950 1949 1950 1950 1949 1953 1964 1971 1979 1990 1994 1986 1981 1974 1969 1979 2001 2017 2029 2036 2031 2018 2009 2007 2011 2027 2048 2059 2065 2067 2057 2046 2046 2054 2064 2078 2090 2094 2094 2093 2092 2089 2093 2100 2109 2125 2141 2146 2154 2166 2171 2175 2184 2188 2182 2175 2171 2162 2158 2156 2149 2137 2133 2127 2118 2117 2118 2112 2101 2088 2067 2046 2028 2010 1991 1982 1980 1972 1962 1957 1948 1938 1935 1937 1936 1938 1942 1941 1941 1942 1941 1939 1941 1940 1936 1939 1944 1942 1941 1948 1957 1967 1979 1988 1995 2005 2016 2019 2024 2033 2037 2035 2035 2036 2034 2035 2036 2032 2026 2024 2018 2011 2005 1996 1983 1975 1968 1958 1948 1945 1945 1941 1942 1939 1936 1940 1946 1944 1941 1946 1944 1940 1943 1938 1939 1943 1942 1941 1944 1943 1941 1944 1941 1932 1919 1898 1869 1846 1829 1821 1847 1916 1994 2056 2132 2222 2310 2399 2487 2562 2628 2688 2718 2701 2649 2581 2500 2414 2321 2217 2108 2010 1914 1821 1739 1684 1673 1716 1771 1805 1843 1897 1935 1944 1950 1959 1958 1951 1951 1950 1949 1950 1950 1949 1953 1964 1971 1979 1990 1994 1986 1981 1974 1969 1979 2001 2017 2029 2036 2031 2018 2009 2007 2011 2027 2048 2059 2065 2067 2057 2046 2046 2054 2064 2078 2090 2094 2094 2093 2092 2089 2093 2100 2109 2125 2141 2146 2154 2166 2171 2175 2184 2188 2182 2175 2171 2162 2158 2156 2149 2137 2133 2127 2118 2117 2118 2112 2101 2088 2067 2046 2028 2010 1991 1982 1980 1972 1962 1957 1948 1938 1935 1937 1936 1938 1942 1941 1941 1942 1941 1939 1941 1940 1936 1939 1944 1942 1941 1948 1957 1967 1979 1988 1995 2005 2016 2019 2024 2033 2037 2035 2035 2036 2034 2035 2036 2032 2026 2024 2018 2011 2005 1996 1983 1975 1968 1958 1948 1945 1945 1941 1942 1939 1936 1940 1946 1944 1941 1946 1944 1940 1943 1938 1939 1943 1942 1941 1944 1943 1941 1944 1941 1932 1919 1898 1869 1846 1829 1821 1847 1916 1994 2056 2132 2222 2310 2399 2487 2562 2628 2688 2718 2701 2649 2581 2500 2414 2321 2217 2108 2010 1914 1821 1739 1684 1673 1716 1771 1805 1843 1897 1935 1944 1950 1959 1958 1951 1951 1950 1949 1950 1950 1949 1953 1964 1971 1979 1990 1994 1986 1981 1974 1969 1979 2001 2017 2029 2036 2031 2018 2009 2007 2011 2027 2048 2059 2065 2067 2057 2046 2046 2054 2064 2078 2090 2094 2094 2093 2092 2089 2093 2100 2109 2125 2141 2146 2154 2166 2171 2175 2184 2188 2182 2175 2171 2162 2158 2156 2149 2137 2133 2127 2118 2117 2118 2112 2101 2088 2067 2046 2028 2010 1991 1982 1980 1972 1962 1957 1948 1938 1935 1937 1936 1938 1942 1941 1941 1942 1941 1939 1941 1940 1936 1939 1944 1942 1941 1948 1957 1967 1979 1988 1995 2005 2016 2019 2024 2033 2037 2035 2035 2036 2034 2035 2036 2032 2026 2024 2018 2011 2005 1996 1983 1975 1968 1958 1948 1945 1945 1941 1942 1939 1936 1940 1946 1944 1941 1946 1944 1940 1943 1938 1939 1943 1942 1941 1944 1943 1941 1944 1941 1932 1919 1898 1869 1846 1829 1821 1847 1916 1994 2056 2132 2222 2310 2399 2487 2562 2628 2688 2718 2701 2649 2581 2500 2414 2321 2217 2108 2010 1914 1821 1739 1684 1673 1716 1771 1805 1843 1897 1935 1944 1950 1959 1958 1951 1951 1950 1949 1950 1950 1949 1953 1964 1971 1979 1990 1994 1986 1981 1974 1969 1979 2001 2017 2029 2036 2031 2018 2009 2007 2011 2027 2048 2059 2065 2067 2057 2046 2046 2054 2064 2078 2090 2094 2094 2093 2092 2089 2093 2100 2109 2125 2141 2146 2154 2166 2171 2175 2184 2188 2182 2175 2171 2162 2158 2156 2149 2137 2133 2127 2118 2117 2118 2112 2101 2088 2067 2046 2028 2010 1991 1982 1980 1972 1962 1957 1948 1938 1935 1937 1936 1938 1942 1941 1941 1942 1941 1939 1941 1940 1936 1939 1944 1942 1941 1948 1957 1967 1979 1988 1995 2005 2016 2019 2024 2033 2037 2035 2035 2036 2034 2035 2036 2032 2026 2024 2018 2011 2005 1996 1983 1975 1968 1958 1948 1945 1945 1941 1942 1939 1936 1940 1946 1944 1941 1946 1944 1940 1943 1938 1939 1943 1942 1941 1944 1943 1941 1944 1941 1932 1919 1898 1869 1846 1829 1821 1847 1916 1994 2056 2132 2222 2310 2399 2487 2562 2628 2688 2718 2701 2649 2581 2500 2414 2321 2217 2108 2010 1914 1821 1739 1684 1673 1716 1771 1805 1843 1897 1935 1944 1950 1959 1958 1951 1951 1950 1949 1950 1950 1949 1953 1964 1971 1979 1990 1994 1986 1981 1974 1969 1979 2001 2017 2029 2036 2031 2018 2009 2007 2011 2027 2048 2059 2065 2067 2057 2046 2046 2054 2064 2078 2090 2094 2094 2093 2092 2089 2093 2100 2109 2125 2141 2146 2154 2166 2171 2175 2184 2188 2182 2175 2171 2162 2158 2156 2149 2137 2133 2127 2118 2117 2118 2112 2101 2088 2067 2046 2028 2010 1991 1982 1980 1972 1962 1957 1948 1938 1935 1937 1936 1938 1942 1941 1941 1942 1941 1939 1941 1940 1936 1939 1944 1942 1941 1948 1957 1967 1979 1988 1995 2005 2016 2019 2024 2033 2037 2035 2035 2036 2034 2035 2036 2032 2026 2024 2018 2011 2005 1996 1983 1975 1968 1958 1948 1945 1945 1941 1942 1939 1936 1940 1946 1944 1941 1946 1944 1940 1943 1938 1939 1943 1942 1941 1944 1943 1941 1944 1941 1932 1919 1898 1869 1846 1829 1821 1847 1916 1994 2056 2132 2222 2310 2399 2487 2562 2628 2688 2718 2701 2649 2581 2500 2414 2321 2217 2108 2010 1914 1821 1739 1684 1673 1716 1771 1805 1843 1897 1935 1944 1950 1959 1958 1951 1951 1950 1949 1950 1950 1949 1953 1964 1971 1979 1990 1994 1986 1981 1974 1969 1979 2001 2017 2029 2036 2031 2018 2009 2007 2011 2027 2048 2059 2065 2067 2057 2046 2046 2054 2064 2078 2090 2094 2094 2093 2092 2089 2093 2100 2109 2125 2141 2146 2154 2166 2171 2175 2184 2188 2182 2175 2171 2162 2158 2156 2149 2137 2133 2127 2118 2117 2118 2112 2101 2088 2067 2046 2028 2010 1991 1982 1980 1972 1962 1957 1948 1938 1935 1937 1936 1938 1942 1941 1941 1942 1941 1939 1941 1940 1936 1939 1944 1942 1941 1948 1957 1967 1979 1988 1995 2005 2016 2019 2024 2033 2037 2035 2035 2036 2034 2035 2036 2032 2026 2024 2018 2011 2005 1996 1983 1975 1968 1958 1948 1945 1945 1941 1942 1939 1936 1940 1946 1944 1941 1946 1944 1940 1943 1938 1939 1943 1942 1941 1944 1943 1941 1944 1941 1932 1919 1898 1869 1846 1829 1821 1847 1916 1994 2056 2132 2222 2310 2399 2487 2562 2628 2688 2718 2701 2649 2581 2500 2414 2321 2217 2108 2010 1914 1821 1739 1684 1673 1716 1771 1805 1843 1897 1935 1944 1950 1959 1958 1951 1951 1950 1949 1950 1950 1949 1953 1964 1971 1979 1990 1994 1986 1981 1974 1969 1979 2001 2017 2029 2036 2031 2018 2009 2007 2011 2027 2048 2059 2065 2067 2057 2046 2046 2054 2064 2078 2090 2094 2094 2093 2092 2089 2093 2100 2109 2125 2141 2146 2154 2166 2171 2175 2184 2188 2182 2175 2171 2162 2158 2156 2149 2137 2133 2127 2118 2117 2118 2112 2101 2088 2067 2046 2028 2010 1991 1982 1980 1972 1962 1957 1948 1938 1935 1937 1936 1938 1942 1941 1941 1942 1941 1939 1941 1940 1936 1939 1944 1942 1941 1948 1957 1967 1979 1988 1995 2005 2016 2019 2024 2033 2037 2035 2035 2036 2034 2035 2036 2032 2026 2024 2018 2011 2005 1996 1983 1975 1968 1958 1948 1945 1945 1941 1942 1939 1936 1940 1946 1944 1941 1946 1944 1940 1943 1938 1939 1943 1942 1941 1944 1943 1941 1944 1941 1932 1919 1898 1869 1846 1829 1821 1847 1916 1994 2056 2132 2222 2310 2399 2487 2562 2628 2688 2718 2701 2649 2581 2500 2414 2321 2217 2108 2010 1914 1821 1739 1684 1673 1716 1771 1805 1843 1897 1935 1944 1950 1959 1958 1951 1951 1950 1949 1950 1950 1949 1953 1964 1971 1979 1990 1994 1986 1981 1974 1969 1979 2001 2017 2029 2036 2031 2018 2009 2007 2011 2027 2048 2059 2065 2067 2057 2046 2046 2054 2064 2078 2090 2094 2094 2093 2092 2089 2093 2100 2109 2125 2141 2146 2154 2166 2171 2175 2184 2188 2182 2175 2171 2162 2158 2156 2149 2137 2133 2127 2118 2117 2118 2112 2101 2088 2067 2046 2028 2010 1991 1982 1980 1972 1962 1957 1948 1938 1935 1937 1936 1938 1942 1941 1941 1942 1941 1939 1941 1940 1936 1939 1944 1942 1941 1948 1957 1967 1979 1988 1995 2005 2016 2019 2024 2033 2037 2035 2035 2036 2034 2035 2036 2032 2026 2024 2018 2011 2005 1996 1983 1975 1968 1958 1948 1945 1945 1941 1942 1939 1936 1940 1946 1944 1941 1946 1944 1940 1943 1938 1939 1943 1942 1941 1944 1943 1941 1944 1941 1932 1919 1898 1869 1846 1829 1821 1847 1916 1994 2056 2132 2222 2310 2399 2487 2562 2628 2688 2718 2701 2649 2581 2500 2414 2321 2217 2108 2010 1914 1821 1739 1684 1673 1716 1771 1805 1843 1897 1935 1944 1950 1959 1958 1951 1951 1950 1949 1950 1950 1949 1953 1964 1971 1979 1990 1994 1986 1981 1974 1969 1979 2001 2017 2029 2036 2031 2018 2009 2007 2011 2027 2048 2059 2065 2067 2057 2046 2046 2054 2064 2078 2090 2094 2094 2093 2092 2089 2093 2100 2109 2125 2141 2146 2154 2166 2171 2175 2184 2188 2182 2175 2171 2162 2158 2156 2149 2137 2133 2127 2118 2117 2118 2112 2101 2088 2067 2046 2028 2010 1991 1982 1980 1972 1962 1957 1948 1938 1935 1937 1936 1938 1942 1941 1941 1942 1941 1939 1941 1940 1936 1939 1944 1942 1941 1948 1957 1967 1979 1988 1995 2005 2016 2019 2024 2033 2037 2035 2035 2036 2034 2035 2036 2032 2026 2024 2018 2011 2005 1996 1983 1975 1968 1958 1948 1945 1945 1941 1942 1939 1936 1940 1946 1944 1941 1946 1944 1940 1943 1938 1939 1943 1942 1941 1944 1943 1941 1944 1941 1932 1919 1898 1869 1846 1829 1821 1847 1916 1994 2056 2132 2222 2310 2399 2487 2562 2628 2688 2718 2701 2649 2581 2500 2414 2321 2217 2108 2010 1914 1821 1739 1684 1673 1716 1771 1805 1843 1897 1935 1944 1950 1959 1958 1951 1951 1950 1949 1950 1950 1949 1953 1964 1971 1979 1990 1994 1986 1981 1974 1969 1979 2001 2017 2029 2036 2031 2018 2009 2007 2011 2027 2048 2059 2065 2067 2057 2046 2046 2054 2064 2078 2090 2094 2094 2093 2092 2089 2093 2100 2109 2125 2141 2146 2154 2166 2171 2175 2184 2188 2182 2175 2171 2162 2158 2156 2149 2137 2133 2127 2118 2117 2118 2112 2101 2088 2067 2046 2028 2010 1991 1982 1980 1972 1962 1957 1948 1938 1935 1937 1936 1938 1942 1941 1941 1942 1941 1939 1941 1940 1936 1939 1944 1942 1941 1948 1957 1967 1979 1988 1995 2005 2016 2019 2024 2033 2037 2035 2035 2036 2034 2035 2036 2032 2026 2024 2018 2011 2005 1996 1983 1975 1968 1958 1948 1945 1945 1941 1942 1939 1936 1940 1946 1944 1941 1946 1944 1940 1943 1938 1939 1943 1942 1941 1944 1943 1941 1944 1941 1932 1919 1898 1869 1846 1829 1821 1847 1916 1994 2056 2132 2222 2310 2399 2487 2562 2628 2688 2718 2701 2649 2581 2500 2414 2321 2217 2108 2010 1914 1821 1739 1684 1673 1716 1771 1805 1843 1897 1935 1944 1950 1959 1958 1951 1951 1950 1949 1950 1950 1949 1953 1964 1971 1979 1990 1994 1986 1981 1974 1969 1979 2001 2017 2029 2036 2031 2018 2009 2007 2011 2027 2048 2059 2065 2067 2057 2046 2046 2054 2064 2078 2090 2094 2094 2093 2092 2089 2093 2100 2109 2125 2141 2146 2154 2166 2171 2175 2184 2188 2182 2175 2171 2162 2158 2156 2149 2137 2133 2127 2118 2117 2118 2112 2101 2088 2067 2046 2028 2010 1991 1982 1980 1972 1962 1957 1948 1938 1935 1937 1936 1938 1942 1941 1941 1942 1941 1939 1941 1940 1936 1939 1944 1942 1941 1948 1957 1967 1979 1988 1995 2005 2016 2019 2024 2033 2037 2035 2035 2036 2034 2035 2036 2032 2026 2024 2018 2011 2005 1996 1983 1975 1968 1958 1948 1945 1945 1941 1942 1939 1936 1940 1946 1944 1941 1946 1944 1940 1943 1938 1939 1943 1942 1941 1944 1943 1941 1944 1941 1932 1919 1898 1869 1846 1829 1821 1847 1916 1994 2056 2132 2222 2310 2399 2487 2562 2628 2688 2718 2701 2649 2581 2500 2414 2321 2217 2108 2010 1914 1821 1739 1684 1673 1716 1771 1805 1843 1897 1935 1944 1950 1959 1958 1951 1951 1950 1949 1950 1950 1949 1953 1964 1971 1979 1990 1994 1986 1981 1974 1969 1979 2001 2017 2029 2036 2031 2018 2009 2007 2011 2027 2048 2059 2065 2067 2057 2046 2046 2054 2064 2078 2090 2094 2094 2093 2092 2089 2093 2100 2109 2125 2141 2146 2154 2166 2171 2175 2184 2188 2182 2175 2171 2162 2158 2156 2149 2137 2133 2127 2118 2117 2118 2112 2101 2088 2067 2046 2028 2010 1991 1982 1980 1972 1962 1957 1948 1938 1935 1937 1936 1938 1942 1941 1941 1942 1941 1939 1941 1940 1936 1939 1944 1942 1941 1948 1957 1967 1979 1988 1995 2005 2016 2019 2024 2033 2037 2035 2035 2036 2034 2035 2036 2032 2026 2024 2018 2011 2005 1996 1983 1975 1968 1958 1948 1945 1945 1941 1942 1939 1936 1940 1946 1944 1941 1946 1944 1940 1943 1938 1939 1943 1942 1941 1944 1943 1941 1944 1941 1932 1919 1898 1869 1846 1829 1821 1847 1916 1994 2056 2132 2222 2310 2399 2487 2562 2628 2688 2718 2701 2649 2581 2500 2414 2321 2217 2108 2010 1914 1821 1739 1684 1673 1716 1771 1805 1843 1897 1935 1944 1950 1959 1958 1951 1951 1950 1949 1950 1950 1949 1953 1964 1971 1979 1990 1994 1986 1981 1974 1969 1979 2001 2017 2029 2036 2031 2018 2009 2007 2011 2027 2048 2059 2065 2067 2057 2046 2046 2054 2064 2078 2090 2094 2094 2093 2092 2089 2093 2100 2109 2125 2141 2146 2154 2166 2171 2175 2184 2188 2182 2175 2171 2162 2158 2156 2149 2137 2133 2127 2118 2117 2118 2112 2101 2088 2067 2046 2028 2010 1991 1982 1980 1972 1962 1957 1948 1938 1935 1937 1936 1938 1942 1941 1941 1942 1941 1939 1941 1940 1936 1939 1944 1942 1941 1948 1957 1967 1979 1988 1995 2005 2016 2019 2024 2033 2037 2035 2035 2036 2034 2035 2036 2032 2026 2024 2018 2011 2005 1996 1983 1975 1968 1958 1948 1945 1945 1941 1942 1939 1936 1940 1946 1944 1941 1946 1944 1940 1943 1938 1939 1943 1942 1941 1944 1943 1941 1944 1941 1932 1919 1898 1869 1846 1829 1821 1847 1916 1994 2056 2132 2222 2310 2399 2487 2562 2628 2688 2718 2701 2649 2581 2500 2414 2321 2217 2108 2010 1914 1821 1739 1684 1673 1716 1771 1805 1843 1897 1935 1944 1950 1959 1958 1951 1951 1950 1949 1950 1950 1949 1953 1964 1971 1979 1990 1994 1986 1981 1974 1969 1979 2001 2017 2029 2036 2031 2018 2009 2007 2011 2027 2048 2059 2065 2067 2057 2046 2046 2054 2064 2078 2090 2094 2094 2093 2092 2089 2093 2100 2109 2125 2141 2146 2154 2166 2171 2175 2184 2188 2182 2175 2171 2162 2158 2156 2149 2137 2133 2127 2118 2117 2118 2112 2101 2088 2067 2046 2028 2010 1991 1982 1980 1972 1962 1957 1948 1938 1935 1937 1936 1938 1942 1941 1941 1942 1941 1939 1941 1940 1936 1939 1944 1942 1941 1948 1957 1967 1979 1988 1995 2005 2016 2019 2024 2033 2037 2035 2035 2036 2034 2035 2036 2032 2026 2024 2018 2011 2005 1996 1983 1975 1968 1958 1948 1945 1945 1941 1942 1939 1936 1940 1946 1944 1941 1946 1944 1940 1943 1938 1939 1943 1942 1941 1944 1943 1941 1944 1941 1932 1919 1898 1869 1846 1829 1821 1847 1916 1994 2056 2132 2222 2310 2399 2487 2562 2628 2688 2718 2701 2649 2581 2500 2414 2321 2217 2108 2010 1914 1821 1739 1684 1673 1716 1771 1805 1843 1897 1935 1944 1950 1959 1958 1951 1951 1950 1949 1950 1950 1949 1953 1964 1971 1979 1990 1994 1986 1981 1974 1969 1979 2001 2017 2029 2036 2031 2018 2009 2007 2011 2027 2048 2059 2065 2067 2057 2046 2046 2054 2064 2078 2090 2094 2094 2093 2092 2089 2093 2100 2109 2125 2141 2146 2154 2166 2171 2175 2184 2188 2182 2175 2171 2162 2158 2156 2149 2137 2133 2127 2118 2117 2118 2112 2101 2088 2067 2046 2028 2010 1991 1982 1980 1972 1962 1957 1948 1938 1935 1937 1936 1938 1942 1941 1941 1942 1941 1939 1941 1940 1936 1939 1944 1942 1941 1948 1957 1967 1979 1988 1995 2005 2016 2019 2024 2033 2037 2035 2035 2036 2034 2035 2036 2032 2026 2024 2018 2011 2005 1996 1983 1975 1968 1958 1948 1945 1945 1941 1942 1939 1936 1940 1946 1944 1941 1946 1944 1940 1943 1938 1939 1943 1942 1941 1944 1943 1941 1944 1941 1932 1919 1898 1869 1846 1829 1821 1847 1916 1994 2056 2132 2222 2310 2399 2487 2562 2628 2688 2718 2701 2649 2581 2500 2414 2321 2217 2108 2010 1914 1821 1739 1684 1673 1716 1771 1805 1843 1897 1935 1944 1950 1959 1958 1951 1951 1950 1949 1950 1950 1949 1953 1964 1971 1979 1990 1994 1986 1981 1974 1969 1979 2001 2017 2029 2036 2031 2018 2009 2007 2011 2027 2048 2059 2065 2067 2057 2046 2046 2054 2064 2078 2090 2094 2094 2093 2092 2089 2093 2100 2109 2125 2141 2146 2154 2166 2171 2175 2184 2188 2182 2175 2171 2162 2158 2156 2149 2137 2133 2127 2118 2117 2118 2112 2101 2088 2067 2046 2028 2010 1991 1982 1980 1972 1962 1957 1948 1938 1935 1937 1936 1938 1942 1941 1941 1942 1941 1939 1941 1940 1936 1939 1944 1942 1941 1948 1957 1967 1979 1988 1995 2005 2016 2019 2024 2033 2037 2035 2035 2036 2034 2035 2036 2032 2026 2024 2018 2011 2005 1996 1983 1975 1968 1958 1948 1945 1945 1941 1942 1939 1936 1940 1946 1944 1941 1946 1944 1940 1943 1938 1939 1943 1942 1941 1944 1943 1941 1944 1941 1932 1919 1898 1869 1846 1829 1821 1847 1916 1994 2056 2132 2222 2310 2399 2487 2562 2628 2688 2718 2701 2649 2581 2500 2414 2321 2217 2108 2010 1914 1821 1739 1684 1673 1716 1771 1805 1843 1897 1935 1944 1950 1959 1958 1951 1951 1950 1949 1950 1950 1949 1953 1964 1971 1979 1990 1994 1986 1981 1974 1969 1979 2001 2017 2029 2036 2031 2018 2009 2007 2011 2027 2048 2059 2065 2067 2057 2046 2046 2054 2064 2078 2090 2094 2094 2093 2092 2089 2093 2100 2109 2125 2141 2146 2154 2166 2171 2175 2184 2188 2182 2175 2171 2162 2158 2156 2149 2137 2133 2127 2118 2117 2118 2112 2101 2088 2067 2046 2028 2010 1991 1982 1980 1972 1962 1957 1948 1938 1935 1937 1936 1938 1942 1941 1941 1942 1941 1939 1941 1940 1936 1939 1944 1942 1941 1948 1957 1967 1979 1988 1995 2005 2016 2019 2024 2033 2037 2035 2035 2036 2034 2035 2036 2032 2026 2024 2018 2011 2005 1996 1983 1975 1968 1958 1948 1945 1945 1941 1942 1939 1936 1940 1946 1944 1941 1946 1944 1940 1943 1938 1939 1943 1942 1941 1944 1943 1941 1944 1941 1932 1919 1898 1869 1846 1829 1821 1847 1916 1994 2056 2132 2222 2310 2399 2487 2562 2628 2688 2718 2701 2649 2581 2500 2414 2321 2217 2108 2010 1914 1821 1739 1684 1673 1716 1771 1805 1843 1897 1935 1944 1950 1959 1958 1951 1951 1950 1949 1950 1950 1949 1953 1964 1971 1979 1990 1994 1986 1981 1974 1969 1979 2001 2017 2029 2036 2031 2018 2009 2007 2011 2027 2048 2059 2065 2067 2057 2046 2046 2054 2064 2078 2090 2094 2094 2093 2092 2089 2093 2100 2109 2125 2141 2146 2154 2166 2171 2175 2184 2188 2182 2175 2171 2162 2158 2156 2149 2137 2133 2127 2118 2117 2118 2112 2101 2088 2067 2046 2028 2010 1991 1982 1980 1972 1962 1957 1948 1938 1935 1937 1936 1938 1942 1941 1941 1942 1941 1939 1941 1940 1936 1939 1944 1942 1941 1948 1957 1967 1979 1988 1995 2005 2016 2019 2024 2033 2037 2035 2035 2036 2034 2035 2036 2032 2026 2024 2018 2011 2005 1996 1983 1975 1968 1958 1948 1945 1945 1941 1942 1939 1936 1940 1946 1944 1941 1946 1944 1940 1943 1938 1939 1943 1942 1941 1944 1943 1941 1944 1941 1932 1919 1898 1869 1846 1829 1821 1847 1916 1994 2056 2132 2222 2310 2399 2487 2562 2628 2688 2718 2701 2649 2581 2500 2414 2321 2217 2108 2010 1914 1821 1739 1684 1673 1716 1771 1805 1843 1897 1935 1944 1950 1959 1958 1951 1951 1950 1949 1950 1950 1949 1953 1964 1971 1979 1990 1994 1986 1981 1974 1969 1979 2001 2017 2029 2036 2031 2018 2009 2007 2011 2027 2048 2059 2065 2067 2057 2046 2046 2054 2064 2078 2090 2094 2094 2093 2092 2089 2093 2100 2109 2125 2141 2146 2154 2166 2171 2175 2184 2188 2182 2175 2171 2162 2158 2156 2149 2137 2133 2127 2118 2117 2118 2112 2101 2088 2067 2046 2028 2010 1991 1982 1980 1972 1962 1957 1948 1938 1935 1937 1936 1938 1942 1941 1941 1942 1941 1939 1941 1940 1936 1939 1944 1942 1941 1948 1957 1967 1979 1988 1995 2005 2016 2019 2024 2033 2037 2035 2035 2036 2034 2035 2036 2032 2026 2024 2018 2011 2005 1996 1983 1975 1968 1958 1948 1945 1945 1941 1942 1939 1936 1940 1946 1944 1941 1946 1944 1940 1943 1938 1939 1943 1942 1941 1944 1943 1941 1944 1941 1932 1919 1898 1869 1846 1829 1821 1847 1916 1994 2056 2132 2222 2310 2399 2487 2562 2628 2688 2718 2701 2649 2581 2500 2414 2321 2217 2108 2010 1914 1821 1739 1684 1673 1716 1771 1805 1843 1897 1935 1944 1950 1959 1958 1951 1951 1950 1949 1950 1950 1949 1953 1964 1971 1979 1990 1994 1986 1981 1974 1969 1979 2001 2017 2029 2036 2031 2018 2009 2007 2011 2027 2048 2059 2065 2067 2057 2046 2046 2054 2064 2078 2090 2094 2094 2093 2092 2089 2093 2100 2109 2125 2141 2146 2154 2166 2171 2175 2184 2188 2182 2175 2171 2162 2158 2156 2149 2137 2133 2127 2118 2117 2118 2112 2101 2088 2067 2046 2028 2010 1991 1982 1980 1972 1962 1957 1948 1938 1935 1937 1936 1938 1942 1941 1941 1942 1941 1939 1941 1940 1936 1939 1944 1942 1941 1948 1957 1967 1979 1988 1995 2005 2016 2019 2024 2033 2037 2035 2035 2036 2034 2035 2036 2032 2026 2024 2018 2011 2005 1996 1983 1975 1968 1958 1948 1945 1945 1941 1942 1939 1936 1940 1946 1944 1941 1946 1944 1940 1943 1938 1939 1943 1942 1941 1944 1943 1941 1944 1941 1932 1919 1898 1869 1846 1829 1821 1847 1916 1994 2056 2132 2222 2310 2399 2487 2562 2628 2688 2718 2701 2649 2581 2500 2414 2321 2217 2108 2010 1914 1821 1739 1684 1673 1716 1771 1805 1843 1897 1935 1944 1950 1959 1958 1951 1951 1950 1949 1950 1950 1949 1953 1964 1971 1979 1990 1994 1986 1981 1974 1969 1979 2001 2017 2029 2036 2031 2018 2009 2007 2011 2027 2048 2059 2065 2067 2057 2046 2046 2054 2064 2078 2090 2094 2094 2093 2092 2089 2093 2100 2109 2125 2141 2146 2154 2166 2171 2175 2184 2188 2182 2175 2171 2162 2158 2156 2149 2137 2133 2127 2118 2117 2118 2112 2101 2088 2067 2046 2028 2010 1991 1982 1980 1972 1962 1957 1948 1938 1935 1937 1936 1938 1942 1941 1941 1942 1941 1939 1941 1940 1936 1939 1944 1942 1941 1948 1957 1967 1979 1988 1995 2005 2016 2019 2024 2033 2037 2035 2035 2036 2034 2035 2036 2032 2026 2024 2018 2011 2005 1996 1983 1975 1968 1958 1948 1945 1945 1941 1942 1939 1936 1940 1946 1944 1941 1946 1944 1940 1943 1938 1939 1943 1942 1941 1944 1943 1941 1944 1941 1932 1919 1898 1869 1846 1829 1821 1847 1916 1994 2056 2132 2222 2310 2399 2487 2562 2628 2688 2718 2701 2649 2581 2500 2414 2321 2217 2108 2010 1914 1821 1739 1684 1673 1716 1771 1805 1843 1897 1935 1944 1950 1959 1958 1951 1951 1950 1949 1950 1950 1949 1953 1964 1971 1979 1990 1994 1986 1981 1974 1969 1979 2001 2017 2029 2036 2031 2018 2009 2007 2011 2027 2048 2059 2065 2067 2057 2046 2046 2054 2064 2078 2090 2094 2094 2093 2092 2089 2093 2100 2109 2125 2141 2146 2154 2166 2171 2175 2184 2188 2182 2175 2171 2162 2158 2156 2149 2137 2133 2127 2118 2117 2118 2112 2101 2088 2067 2046 2028 2010 1991 1982 1980 1972 1962 1957 1948 1938 1935 1937 1936 1938 1942 1941 1941 1942 1941 1939 1941 1940 1936 1939 1944 1942 1941 1948 1957 1967 1979 1988 1995 2005 2016 2019 2024 2033 2037 2035 2035 2036 2034 2035 2036 2032 2026 2024 2018 2011 2005 1996 1983 1975 1968 1958 1948 1945 1945 1941 1942 1939 1936 1940 1946 1944 1941 1946 1944 1940 1943 1938 1939 1943 1942 1941 1944 1943 1941 1944 1941 1932 1919 1898 1869 1846 1829 1821 1847 1916 1994 2056 2132 2222 2310 2399 2487 2562 2628 2688 2718 2701 2649 2581 2500 2414 2321 2217 2108 2010 1914 1821 1739 1684 1673 1716 1771 1805 1843 1897 1935 1944 1950 1959 1958 1951 1951 1950 1949 1950 1950 1949 1953 1964 1971 1979 1990 1994 1986 1981 1974 1969 1979 2001 2017 2029 2036 2031 2018 2009 2007 2011 2027 2048 2059 2065 2067 2057 2046 2046 2054 2064 2078 2090 2094 2094 2093 2092 2089 2093 2100 2109 2125 2141 2146 2154 2166 2171 2175 2184 2188 2182 2175 2171 2162 2158 2156 2149 2137 2133 2127 2118 2117 2118 2112 2101 2088 2067 2046 2028 2010 1991 1982 1980 1972 1962 1957 1948 1938 1935 1937 1936 1938 1942 1941 1941 1942 1941 1939 1941 1940 1936 1939 1944 1942 1941 1948 1957 1967 1979 1988 1995 2005 2016 2019 2024 2033 2037 2035 2035 2036 2034 2035 2036 2032 2026 2024 2018 2011 2005 1996 1983 1975 1968 1958 1948 1945 1945 1941 1942 1939 1936 1940 1946 1944 1941 1946 1944 1940 1943 1938 1939 1943 1942 1941 1944 1943 1941 1944 1941 1932 1919 1898 1869 1846 1829 1821 1847 1916 1994 2056 2132 2222 2310 2399 2487 2562 2628 2688 2718 2701 2649 2581 2500 2414 2321 2217 2108 2010 1914 1821 1739 1684 1673 1716 1771 1805 1843 1897 1935 1944 1950 1959 1958 1951 1951 1950 1949 1950 1950 1949 1953 1964 1971 1979 1990 1994 1986 1981 1974 1969 1979 2001 2017 2029 2036 2031 2018 2009 2007 2011 2027 2048 2059 2065 2067 2057 2046 2046 2054 2064 2078 2090 2094 2094 2093 2092 2089 2093 2100 2109 2125 2141 2146 2154 2166 2171 2175 2184 2188 2182 2175 2171 2162 2158 2156 2149 2137 2133 2127 2118 2117 2118 2112 2101 2088 2067 2046 2028 2010 1991 1982 1980 1972 1962 1957 1948 1938 1935 1937 1936 1938 1942 1941 1941 1942 1941 1939 1941 1940 1936 1939 1944 1942 1941 1948 1957 1967 1979 1988 1995 2005 2016 2019 2024 2033 2037 2035 2035 2036 2034 2035 2036 2032 2026 2024 2018 2011 2005 1996 1983 1975 1968 1958 1948 1945 1945 1941 1942 1939 1936 1940 1946 1944 1941 1946 1944 1940 1943 1938 1939 1943 1942 1941 1944 1943 1941 1944 1941 1932 1919 1898 1869 1846 1829 1821 1847 1916 1994 2056 2132 2222 2310 2399 2487 2562 2628 2688 2718 2701 2649 2581 2500 2414 2321 2217 2108 2010 1914 1821 1739 1684 1673 1716 1771 1805 1843 1897 1935 1944 1950 1959 1958 1951 1951 1950 1949 1950 1950 1949 1953 1964 1971 1979 1990 1994 1986 1981 1974 1969 1979 2001 2017 2029 2036 2031 2018 2009 2007 2011 2027 2048 2059 2065 2067 2057 2046 2046 2054 2064 2078 2090 2094 2094 2093 2092 2089 2093 2100 2109 2125 2141 2146 2154 2166 2171 2175 2184 2188 2182 2175 2171 2162 2158 2156 2149 2137 2133 2127 2118 2117 2118 2112 2101 2088 2067 2046 2028 2010 1991 1982 1980 1972 1962 1957 1948 1938 1935 1937 1936 1938 1942 1941 1941 1942 1941 1939 1941 1940 1936 1939 1944 1942 1941 1948 1957 1967 1979 1988 1995 2005 2016 2019 2024 2033 2037 2035 2035 2036 2034 2035 2036 2032 2026 2024 2018 2011 2005 1996 1983 1975 1968 1958 1948 1945 1945 1941 1942 1939 1936 1940 1946 1944 1941 1946 1944 1940 1943 1938 1939 1943 1942 1941 1944 1943 1941 1944 1941 1932 1919 1898 1869 1846 1829 1821 1847 1916 1994 2056 2132 2222 2310 2399 2487 2562 2628 2688 2718 2701 2649 2581 2500 2414 2321 2217 2108 2010 1914 1821 1739 1684 1673 1716 1771 1805 1843 1897 1935 1944 1950 1959 1958 1951 1951 1950 1949 1950 1950 1949 1953 1964 1971 1979 1990 1994 1986 1981 1974 1969 1979 2001 2017 2029 2036 2031 2018 2009 2007 2011 2027 2048 2059 2065 2067 2057 2046 2046 2054 2064 2078 2090 2094 2094 2093 2092 2089 2093 2100 2109 2125 2141 2146 2154 2166 2171 2175 2184 2188 2182 2175 2171 2162 2158 2156 2149 2137 2133 2127 2118 2117 2118 2112 2101 2088 2067 2046 2028 2010 1991 1982 1980 1972 1962 1957 1948 1938 1935 1937 1936 1938 1942 1941 1941 1942 1941 1939 1941 1940 1936 1939 1944 1942 1941 1948 1957 1967 1979 1988 1995 2005 2016 2019 2024 2033 2037 2035 2035 2036 2034 2035 2036 2032 2026 2024 2018 2011 2005 1996 1983 1975 1968 1958 1948 1945 1945 1941 1942 1939 1936 1940 1946 1944 1941 1946 1944 1940 1943 1938 1939 1943 1942 1941 1944 1943 1941 1944 1941 1932 1919 1898 1869 1846 1829 1821 1847 1916 1994 2056 2132 2222 2310 2399 2487 2562 2628 2688 2718 2701 2649 2581 2500 2414 2321 2217 2108 2010 1914 1821 1739 1684 1673 1716 1771 1805 1843 1897 1935 1944 1950 1959 1958 1951 1951 1950 1949 1950 1950 1949 1953 1964 1971 1979 1990 1994 1986 1981 1974 1969 1979 2001 2017 2029 2036 2031 2018 2009 2007 2011 2027 2048 2059 2065 2067 2057 2046 2046 2054 2064 2078 2090 2094 2094 2093 2092 2089 2093 2100 2109 2125 2141 2146 2154 2166 2171 2175 2184 2188 2182 2175 2171 2162 2158 2156 2149 2137 2133 2127 2118 2117 2118 2112 2101 2088 2067 2046 2028 2010 1991 1982 1980 1972 1962 1957 1948 1938 1935 1937 1936 1938 1942 1941 1941 1942 1941 1939 1941 1940 1936 1939 1944 1942 1941 1948 1957 1967 1979 1988 1995 2005 2016 2019 2024 2033 2037 2035 2035 2036 2034 2035 2036 2032 2026 2024 2018 2011 2005 1996 1983 1975 1968 1958 1948 1945 1945 1941 1942 1939 1936 1940 1946 1944 1941 1946 1944 1940 1943 1938 1939 1943 1942 1941 1944 1943 1941 1944 1941 1932 1919 1898 1869 1846 1829 1821 1847 1916 1994 2056 2132 2222 2310 2399 2487 2562 2628 2688 2718 2701 2649 2581 2500 2414 2321 2217 2108 2010 1914 1821 1739 1684 1673 1716 1771 1805 1843 1897 1935 1944 1950 1959 1958 1951 1951 1950 1949 1950 1950 1949 1953 1964 1971 1979 1990 1994 1986 1981 1974 1969 1979 2001 2017 2029 2036 2031 2018 2009 2007 2011 2027 2048 2059 2065 2067 2057 2046 2046 2054 2064 2078 2090 2094 2094 2093 2092 2089 2093 2100 2109 2125 2141 2146 2154 2166 2171 2175 2184 2188 2182 2175 2171 2162 2158 2156 2149 2137 2133 2127 2118 2117 2118 2112 2101 2088 2067 2046 2028 2010 1991 1982 1980 1972 1962 1957 1948 1938 1935 1937 1936 1938 1942 1941 1941 1942 1941 1939 1941 1940 1936 1939 1944 1942 1941 1948 1957 1967 1979 1988 1995 2005 2016 2019 2024 2033 2037 2035 2035 2036 2034 2035 2036 2032 2026 2024 2018 2011 2005 1996 1983 1975 1968 1958 1948 1945 1945 1941 1942 1939 1936 1940 1946 1944 1941 1946 1944 1940 1943 1938 1939 1943 1942 1941 1944 1943 1941 1944 1941 1932 1919 1898 1869 1846 1829 1821 1847 1916 1994 2056 2132 2222 2310 2399 2487 2562 2628 2688 2718 2701 2649 2581 2500 2414 2321 2217 2108 2010 1914 1821 1739 1684 1673 1716 1771 1805 1843 1897 1935 1944 1950 1959 1958 1951 1951 1950 1949 1950 1950 1949 1953 1964 1971 1979 1990 1994 1986 1981 1974 1969 1979 2001 2017 2029 2036 2031 2018 2009 2007 2011 2027 2048 2059 2065 2067 2057 2046 2046 2054 2064 2078 2090 2094 2094 2093 2092 2089 2093 2100 2109 2125 2141 2146 2154 2166 2171 2175 2184 2188 2182 2175 2171 2162 2158 2156 2149 2137 2133 2127 2118 2117 2118 2112 2101 2088 2067 2046 2028 2010 1991 1982 1980 1972 1962 1957 1948 1938 1935 1937 1936 1938 1942 1941 1941 1942 1941 1939 1941 1940 1936 1939 1944 1942 1941 1948 1957 1967 1979 1988 1995 2005 2016 2019 2024 2033 2037 2035 2035 2036 2034 2035 2036 2032 2026 2024 2018 2011 2005 1996 1983 1975 1968 1958 1948 1945 1945 1941 1942 1939 1936 1940 1946 1944 1941 1946 1944 1940 1943 1938 1939 1943 1942 1941 1944 1943 1941 1944 1941 1932 1919 1898 1869 1846 1829 1821 1847 1916 1994 2056 2132 2222 2310 2399 2487 2562 2628 2688 2718 2701 2649 2581 2500 2414 2321 2217 2108 2010 1914 1821 1739 1684 1673 1716 1771 1805 1843 1897 1935 1944 1950 1959 1958 1951 1951 1950 1949 1950 1950 1949 1953 1964 1971 1979 1990 1994 1986 1981 1974 1969 1979 2001 2017 2029 2036 2031 2018 2009 2007 2011 2027 2048 2059 2065 2067 2057 2046 2046 2054 2064 2078 2090 2094 2094 2093 2092 2089 2093 2100 2109 2125 2141 2146 2154 2166 2171 2175 2184 2188 2182 2175 2171 2162 2158 2156 2149 2137 2133 2127 2118 2117 2118 2112 2101 2088 2067 2046 2028 2010 1991 1982 1980 1972 1962 1957 1948 1938 1935 1937 1936 1938 1942 1941 1941 1942 1941 1939 1941 1940 1936 1939 1944 1942 1941 1948 1957 1967 1979 1988 1995 2005 2016 2019 2024 2033 2037 2035 2035 2036 2034 2035 2036 2032 2026 2024 2018 2011 2005 1996 1983 1975 1968 1958 1948 1945 1945 1941 1942 1939 1936 1940 1946 1944 1941 1946 1944 1940 1943 1938 1939 1943 1942 1941 1944 1943 1941 1944 1941 1932 1919 1898 1869 1846 1829 1821 1847 1916 1994 2056 2132 2222 2310 2399 2487 2562 2628 2688 2718 2701 2649 2581 2500 2414 2321 2217 2108 2010 1914 1821 1739 1684 1673 1716 1771 1805 1843 1897 1935 1944 1950 1959 1958 1951 1951 1950 1949 1950 1950 1949 1953 1964 1971 1979 1990 1994 1986 1981 1974 1969 1979 2001 2017 2029 2036 2031 2018 2009 2007 2011 2027 2048 2059 2065 2067 2057 2046 2046 2054 2064 2078 2090 2094 2094 2093 2092 2089 2093 2100 2109 2125 2141 2146 2154 2166 2171 2175 2184 2188 2182 2175 2171 2162 2158 2156 2149 2137 2133 2127 2118 2117 2118 2112 2101 2088 2067 2046 2028 2010 1991 1982 1980 1972 1962 1957 1948 1938 1935 1937 1936 1938 1942 1941 1941 1942 1941 1939 1941 1940 1936 1939 1944 1942 1941 1948 1957 1967 1979 1988 1995 2005 2016 2019 2024 2033 2037 2035 2035 2036 2034 2035 2036 2032 2026 2024 2018 2011 2005 1996 1983 1975 1968 1958 1948 1945 1945 1941 1942 1939 1936 1940 1946 1944 1941 1946 1944 1940 1943 1938 1939 1943 1942 1941 1944 1943 1941 1944 1941 1932 1919 1898 1869 1846 1829 1821 1847 1916 1994 2056 2132 2222 2310 2399 2487 2562 2628 2688 2718 2701 2649 2581 2500 2414 2321 2217 2108 2010 1914 1821 1739 1684 1673 1716 1771 1805 1843 1897 1935 1944 1950 1959 1958 1951 1951 1950 1949 1950 1950 1949 1953 1964 1971 1979 1990 1994 1986 1981 1974 1969 1979 2001 2017 2029 2036 2031 2018 2009 2007 2011 2027 2048 2059 2065 2067 2057 2046 2046 2054 2064 2078 2090 2094 2094 2093 2092 2089 2093 2100 2109 2125 2141 2146 2154 2166 2171 2175 2184 2188 2182 2175 2171 2162 2158 2156 2149 2137 2133 2127 2118 2117 2118 2112 2101 2088 2067 2046 2028 2010 1991 1982 1980 1972 1962 1957 1948 1938 1935 1937 1936 1938 1942 1941 1941 1942 1941 1939 1941 1940 1936 1939 1944 1942 1941 1948 1957 1967 1979 1988 1995 2005 2016 2019 2024 2033 2037 2035 2035 2036 2034 2035 2036 2032 2026 2024 2018 2011 2005 1996 1983 1975 1968 1958 1948 1945 1945 1941 1942 1939 1936 1940 1946 1944 1941 1946 1944 1940 1943 1938 1939 1943 1942 1941 1944 1943 1941 1944 1941 1932 1919 1898 1869 1846 1829 1821 1847 1916 1994 2056 2132 2222 2310 2399 2487 2562 2628 2688 2718 2701 2649 2581 2500 2414 2321 2217 2108 2010 1914 1821 1739 1684 1673 1716 1771 1805 1843 1897 1935 1944 1950 1959 1958 1951 1951 1950 1949 1950 1950 1949 1953 1964 1971 1979 1990 1994 1986 1981 1974 1969 1979 2001 2017 2029 2036 2031 2018 2009 2007 2011 2027 2048 2059 2065 2067 2057 2046 2046 2054 2064 2078 2090 2094 2094 2093 2092 2089 2093 2100 2109 2125 2141 2146 2154 2166 2171 2175 2184 2188 2182 2175 2171 2162 2158 2156 2149 2137 2133 2127 2118 2117 2118 2112 2101 2088 2067 2046 2028 2010 1991 1982 1980 1972 1962 1957 1948 1938 1935 1937 1936 1938 1942 1941 1941 1942 1941 1939 1941 1940 1936 1939 1944 1942 1941 1948 1957 1967 1979 1988 1995 2005 2016 2019 2024 2033 2037 2035 2035 2036 2034 2035 2036 2032 2026 2024 2018 2011 2005 1996 1983 1975 1968 1958 1948 1945 1945 1941 1942 1939 1936 1940 1946 1944 1941 1946 1944 1940 1943 1938 1939 1943 1942 1941 1944 1943 1941 1944 1941 1932 1919 1898 1869 1846 1829 1821 1847 1916 1994 2056 2132 2222 2310 2399 2487 2562 2628 2688 2718 2701 2649 2581 2500 2414 2321 2217 2108 2010 1914 1821 1739 1684 1673 1716 1771 1805 1843 1897 1935 1944 1950 1959 1958 1951 1951 1950 1949 1950 1950 1949 1953 1964 1971 1979 1990 1994 1986 1981 1974 1969 1979 2001 2017 2029 2036 2031 2018 2009 2007 2011 2027 2048 2059 2065 2067 2057 2046 2046 2054 2064 2078 2090 2094 2094 2093 2092 2089 2093 2100 2109 2125 2141 2146 2154 2166 2171 2175 2184 2188 2182 2175 2171 2162 2158 2156 2149 2137 2133 2127 2118 2117 2118 2112 2101 2088 2067 2046 2028 2010 1991 1982 1980 1972 1962 1957 1948 1938 1935 1937 1936 1938 1942 1941 1941 1942 1941 1939 1941 1940 1936 1939 1944 1942 1941 1948 1957 1967 1979 1988 1995 2005 2016 2019 2024 2033 2037 2035 2035 2036 2034 2035 2036 2032 2026 2024 2018 2011 2005 1996 1983 1975 1968 1958 1948 1945 1945 1941 1942 1939 1936 1940 1946 1944 1941 1946 1944 1940 1943 1938 1939 1943 1942 1941 1944 1943 1941 1944 1941 1932 1919 1898 1869 1846 1829 1821 1847 1916 1994 2056 2132 2222 2310 2399 2487 2562 2628 2688 2718 2701 2649 2581 2500 2414 2321 2217 2108 2010 1914 1821 1739 1684 1673 1716 1771 1805 1843 1897 1935 1944 1950 1959 1958 1951 1951 1950 1949 1950 1950 1949 1953 1964 1971 1979 1990 1994 1986 1981 1974 1969 1979 2001 2017 2029 2036 2031 2018 2009 2007 2011 2027 2048 2059 2065 2067 2057 2046 2046 2054 2064 2078 2090 2094 2094 2093 2092 2089 2093 2100 2109 2125 2141 2146 2154 2166 2171 2175 2184 2188 2182 2175 2171 2162 2158 2156 2149 2137 2133 2127 2118 2117 2118 2112 2101 2088 2067 2046 2028 2010 1991 1982 1980 1972 1962 1957 1948 1938 1935 1937 1936 1938 1942 1941 1941 1942 1941 1939 1941 1940 1936 1939 1944 1942 1941 1948 1957 1967 1979 1988 1995 2005 2016 2019 2024 2033 2037 2035 2035 2036 2034 2035 2036 2032 2026 2024 2018 2011 2005 1996 1983 1975 1968 1958 1948 1945 1945 1941 1942 1939 1936 1940 1946 1944 1941 1946 1944 1940 1943 1938 1939 1943 1942 1941 1944 1943 1941 1944 1941 1932 1919 1898 1869 1846 1829 1821 1847 1916 1994 2056 2132 2222 2310 2399 2487 2562 2628 2688 2718 2701 2649 2581 2500 2414 2321 2217 2108 2010 1914 1821 1739 1684 1673 1716 1771 1805 1843 1897 1935 1944 1950 1959 1958 1951 1951 1950 1949 1950 1950 1949 1953 1964 1971 1979 1990 1994 1986 1981 1974 1969 1979 2001 2017 2029 2036 2031 2018 2009 2007 2011 2027 2048 2059 2065 2067 2057 2046 2046 2054 2064 2078 2090 2094 2094 2093 2092 2089 2093 2100 2109 2125 2141 2146 2154 2166 2171 2175 2184 2188 2182 2175 2171 2162 2158 2156 2149 2137 2133 2127 2118 2117 2118 2112 2101 2088 2067 2046 2028 2010 1991 1982 1980 1972 1962 1957 1948 1938 1935 1937 1936 1938 1942 1941 1941 1942 1941 1939 1941 1940 1936 1939 1944 1942 1941 1948 1957 1967 1979 1988 1995 2005 2016 2019 2024 2033 2037 2035 2035 2036 2034 2035 2036 2032 2026 2024 2018 2011 2005 1996 1983 1975 1968 1958 1948 1945 1945 1941 1942 1939 1936 1940 1946 1944 1941 1946 1944 1940 1943 1938 1939 1943 1942 1941 1944 1943 1941 1944 1941 1932 1919 1898 1869 1846 1829 1821 1847 1916 1994 2056 2132 2222 2310 2399 2487 2562 2628 2688 2718 2701 2649 2581 2500 2414 2321 2217 2108 2010 1914 1821 1739 1684 1673 1716 1771 1805 1843 1897 1935 1944 1950 1959 1958 1951 1951 1950 1949 1950 1950 1949 1953 1964 1971 1979 1990 1994 1986 1981 1974 1969 1979 2001 2017 2029 2036 2031 2018 2009 2007 2011 2027 2048 2059 2065 2067 2057 2046 2046 2054 2064 2078 2090 2094 2094 2093 2092 2089 2093 2100 2109 2125 2141 2146 2154 2166 2171 2175 2184 2188 2182 2175 2171 2162 2158 2156 2149 2137 2133 2127 2118 2117 2118 2112 2101 2088 2067 2046 2028 2010 1991 1982 1980 1972 1962 1957 1948 1938 1935 1937 1936 1938 1942 1941 1941 1942 1941 1939 1941 1940 1936 1939 1944 1942 1941 1948 1957 1967 1979 1988 1995 2005 2016 2019 2024 2033 2037 2035 2035 2036 2034 2035 2036 2032 2026 2024 2018 2011 2005 1996 1983 1975 1968 1958 1948 1945 1945 1941 1942 1939 1936 1940 1946 1944 1941 1946 1944 1940 1943 1938 1939 1943 1942 1941 1944 1943 1941 1944 1941 1932 1919 1898 1869 1846 1829 1821 1847 1916 1994 2056 2132 2222 2310 2399 2487 2562 2628 2688 2718 2701 2649 2581 2500 2414 2321 2217 2108 2010 1914 1821 1739 1684 1673 1716 1771 1805 1843 1897 1935 1944 1950 1959 1958 1951 1951 1950 1949 1950 1950 1949 1953 1964 1971 1979 1990 1994 1986 1981 1974 1969 1979 2001 2017 2029 2036 2031 2018 2009 2007 2011 2027 2048 2059 2065 2067 2057 2046 2046 2054 2064 2078 2090 2094 2094 2093 2092 2089 2093 2100 2109 2125 2141 2146 2154 2166 2171 2175 2184 2188 2182 2175 2171 2162 2158 2156 2149 2137 2133 2127 2118 2117 2118 2112 2101 2088 2067 2046 2028 2010 1991 1982 1980 1972 1962 1957 1948 1938 1935 1937 1936 1938 1942 1941 1941 1942 1941 1939 1941 1940 1936 1939 1944 1942 1941 1948 1957 1967 1979 1988 1995 2005 2016 2019 2024 2033 2037 2035 2035 2036 2034 2035 2036 2032 2026 2024 2018 2011 2005 1996 1983 1975 1968 1958 1948 1945 1945 1941 1942 1939 1936 1940 1946 1944 1941 1946 1944 1940 1943 1938 1939 1943 1942 1941 1944 1943 1941 1944 1941 1932 1919 1898 1869 1846 1829 1821 1847 1916 1994 2056 2132 2222 2310 2399 2487 2562 2628 2688 2718 2701 2649 2581 2500 2414 2321 2217 2108 2010 1914 1821 1739 1684 1673 1716 1771 1805 1843 1897 1935 1944 1950 1959 1958 1951 1951 1950 1949 1950 1950 1949 1953 1964 1971 1979 1990 1994 1986 1981 1974 1969 1979 2001 2017 2029 2036 2031 2018 2009 2007 2011 2027 2048 2059 2065 2067 2057 2046 2046 2054 2064 2078 2090 2094 2094 2093 2092 2089 2093 2100 2109 2125 2141 2146 2154 2166 2171 2175 2184 2188 2182 2175 2171 2162 2158 2156 2149 2137 2133 2127 2118 2117 2118 2112 2101 2088 2067 2046 2028 2010 1991 1982 1980 1972 1962 1957 1948 1938 1935 1937 1936 1938 1942 1941 1941 1942 1941 1939 1941 1940 1936 1939 1944 1942 1941 1948 1957 1967 1979 1988 1995 2005 2016 2019 2024 2033 2037 2035 2035 2036 2034 2035 2036 2032 2026 2024 2018 2011 2005 1996 1983 1975 1968 1958 1948 1945 1945 1941 1942 1939 1936 1940 1946 1944 1941 1946 1944 1940 1943 1938 1939 1943 1942 1941 1944 1943 1941 1944 1941 1932 1919 1898 1869 1846 1829 1821 1847 1916 1994 2056 2132 2222 2310 2399 2487 2562 2628 2688 2718 2701 2649 2581 2500 2414 2321 2217 2108 2010 1914 1821 1739 1684 1673 1716 1771 1805 1843 1897 1935 1944 1950 1959 1958 1951 1951 1950 1949 1950 1950 1949 1953 1964 1971 1979 1990 1994 1986 1981 1974 1969 1979 2001 2017 2029 2036 2031 2018 2009 2007 2011 2027 2048 2059 2065 2067 2057 2046 2046 2054 2064 2078 2090 2094 2094 2093 2092 2089 2093 2100 2109 2125 2141 2146 2154 2166 2171 2175 2184 2188 2182 2175 2171 2162 2158 2156 2149 2137 2133 2127 2118 2117 2118 2112 2101 2088 2067 2046 2028 2010 1991 1982 1980 1972 1962 1957 1948 1938 1935 1937 1936 1938 1942 1941 1941 1942 1941 1939 1941 1940 1936 1939 1944 1942 1941 1948 1957 1967 1979 1988 1995 2005 2016 2019 2024 2033 2037 2035 2035 2036 2034 2035 2036 2032 2026 2024 2018 2011 2005 1996 1983 1975 1968 1958 1948 1945 1945 1941 1942 1939 1936 1940 1946 1944 1941 1946 1944 1940 1943 1938 1939 1943 1942 1941 1944 1943 1941 1944 1941 1932 1919 1898 1869 1846 1829 1821 1847 1916 1994 2056 2132 2222 2310 2399 2487 2562 2628 2688 2718 2701 2649 2581 2500 2414 2321 2217 2108 2010 1914 1821 1739 1684 1673 1716 1771 1805 1843 1897 1935 1944 1950 1959 1958 1951 1951 1950 1949 1950 1950 1949 1953 1964 1971 1979 1990 1994 1986 1981 1974 1969 1979 2001 2017 2029 2036 2031 2018 2009 2007 2011 2027 2048 2059 2065 2067 2057 2046 2046 2054 2064 2078 2090 2094 2094 2093 2092 2089 2093 2100 2109 2125 2141 2146 2154 2166 2171 2175 2184 2188 2182 2175 2171 2162 2158 2156 2149 2137 2133 2127 2118 2117 2118 2112 2101 2088 2067 2046 2028 2010 1991 1982 1980 1972 1962 1957 1948 1938 1935 1937 1936 1938 1942 1941 1941 1942 1941 1939 1941 1940 1936 1939 1944 1942 1941 1948 1957 1967 1979 1988 1995 2005 2016 2019 2024 2033 2037 2035 2035 2036 2034 2035 2036 2032 2026 2024 2018 2011 2005 1996 1983 1975 1968 1958 1948 1945 1945 1941 1942 1939 1936 1940 1946 1944 1941 1946 1944 1940 1943 1938 1939 1943 1942 1941 1944 1943 1941 1944 1941 1932 1919 1898 1869 1846 1829 1821 1847 1916 1994 2056 2132 2222 2310 2399 2487 2562 2628 2688 2718 2701 2649 2581 2500 2414 2321 2217 2108 2010 1914 1821 1739 1684 1673 1716 1771 1805 1843 1897 1935 1944 1950 1959 1958 1951 1951 1950 1949 1950 1950 1949 1953 1964 1971 1979 1990 1994 1986 1981 1974 1969 1979 2001 2017 2029 2036 2031 2018 2009 2007 2011 2027 2048 2059 2065 2067 2057 2046 2046 2054 2064 2078 2090 2094 2094 2093 2092 2089 2093 2100 2109 2125 2141 2146 2154 2166 2171 2175 2184 2188 2182 2175 2171 2162 2158 2156 2149 2137 2133 2127 2118 2117 2118 2112 2101 2088 2067 2046 2028 2010 1991 1982 1980 1972 1962 1957 1948 1938 1935 1937 1936 1938 1942 1941 1941 1942 1941 1939 1941 1940 1936 1939 1944 1942 1941 1948 1957 1967 1979 1988 1995 2005 2016 2019 2024 2033 2037 2035 2035 2036 2034 2035 2036 2032 2026 2024 2018 2011 2005 1996 1983 1975 1968 1958 1948 1945 1945 1941 1942 1939 1936 1940 1946 1944 1941 1946 1944 1940 1943 1938 1939 1943 1942 1941 1944 1943 1941 1944 1941 1932 1919 1898 1869 1846 1829 1821 1847 1916 1994 2056 2132 2222 2310 2399 2487 2562 2628 2688 2718 2701 2649 2581 2500 2414 2321 2217 2108 2010 1914 1821 1739 1684 1673 1716 1771 1805 1843 1897 1935 1944 1950 1959 1958 1951 1951 1950 1949 1950 1950 1949 1953 1964 1971 1979 1990 1994 1986 1981 1974 1969 1979 2001 2017 2029 2036 2031 2018 2009 2007 2011 2027 2048 2059 2065 2067 2057 2046 2046 2054 2064 2078 2090 2094 2094 2093 2092 2089 2093 2100 2109 2125 2141 2146 2154 2166 2171 2175 2184 2188 2182 2175 2171 2162 2158 2156 2149 2137 2133 2127 2118 2117 2118 2112 2101 2088 2067 2046 2028 2010 1991 1982 1980 1972 1962 1957 1948 1938 1935 1937 1936 1938 1942 1941 1941 1942 1941 1939 1941 1940 1936 1939 1944 1942 1941 1948 1957 1967 1979 1988 1995 2005 2016 2019 2024 2033 2037 2035 2035 2036 2034 2035 2036 2032 2026 2024 2018 2011 2005 1996 1983 1975 1968 1958 1948 1945 1945 1941 1942 1939 1936 1940 1946 1944 1941 1946 1944 1940 1943 1938 1939 1943 1942 1941 1944 1943 1941 1944 1941 1932 1919 1898 1869 1846 1829 1821 1847 1916 1994 2056 2132 2222 2310 2399 2487 2562 2628 2688 2718 2701 2649 2581 2500 2414 2321 2217 2108 2010 1914 1821 1739 1684 1673 1716 1771 1805 1843 1897 1935 1944 1950 1959 1958 1951 1951 1950 1949 1950 1950 1949 1953 1964 1971 1979 1990 1994 1986 1981 1974 1969 1979 2001 2017 2029 2036 2031 2018 2009 2007 2011 2027 2048 2059 2065 2067 2057 2046 2046 2054 2064 2078 2090 2094 2094 2093 2092 2089 2093 2100 2109 2125 2141 2146 2154 2166 2171 2175 2184 2188 2182 2175 2171 2162 2158 2156 2149 2137 2133 2127 2118 2117 2118 2112 2101 2088 2067 2046 2028 2010 1991 1982 1980 1972 1962 1957 1948 1938 1935 1937 1936 1938 1942 1941 1941 1942 1941 1939 1941 1940 1936 1939 1944 1942 1941 1948 1957 1967 1979 1988 1995 2005 2016 2019 2024 2033 2037 2035 2035 2036 2034 2035 2036 2032 2026 2024 2018 2011 2005 1996 1983 1975 1968 1958 1948 1945 1945 1941 1942 1939 1936 1940 1946 1944 1941 1946 1944 1940 1943 1938 1939 1943 1942 1941 1944 1943 1941 1944 1941 1932 1919 1898 1869 1846 1829 1821 1847 1916 1994 2056 2132 2222 2310 2399 2487 2562 2628 2688 2718 2701 2649 2581 2500 2414 2321 2217 2108 2010 1914 1821 1739 1684 1673 1716 1771 1805 1843 1897 1935 1944 1950 1959 1958 1951 1951 1950 1949 1950 1950 1949 1953 1964 1971 1979 1990 1994 1986 1981 1974 1969 1979 2001 2017 2029 2036 2031 2018 2009 2007 2011 2027 2048 2059 2065 2067 2057 2046 2046 2054 2064 2078 2090 2094 2094 2093 2092 2089 2093 2100 2109 2125 2141 2146 2154 2166 2171 2175 2184 2188 2182 2175 2171 2162 2158 2156 2149 2137 2133 2127 2118 2117 2118 2112 2101 2088 2067 2046 2028 2010 1991 1982 1980 1972 1962 1957 1948 1938 1935 1937 1936 1938 1942 1941 1941 1942 1941 1939 1941 1940 1936 1939 1944 1942 1941 1948 1957 1967 1979 1988 1995 2005 2016 2019 2024 2033 2037 2035 2035 2036 2034 2035 2036 2032 2026 2024 2018 2011 2005 1996 1983 1975 1968 1958 1948 1945 1945 1941 1942 1939 1936 1940 1946 1944 1941 1946 1944 1940 1943 1938 1939 1943 1942 1941 1944 1943 1941 1944 1941 1932 1919 1898 1869 1846 1829 1821 1847 1916 1994 2056 2132 2222 2310 2399 2487 2562 2628 2688 2718 2701 2649 2581 2500 2414 2321 2217 2108 2010 1914 1821 1739 1684 1673 1716 1771 1805 1843 1897 1935 1944 1950 1959 1958 1951 1951 1950 1949 1950 1950 1949 1953 1964 1971 1979 1990 1994 1986 1981 1974 1969 1979 2001 2017 2029 2036 2031 2018 2009 2007 2011 2027 2048 2059 2065 2067 2057 2046 2046 2054 2064 2078 2090 2094 2094 2093 2092 2089 2093 2100 2109 2125 2141 2146 2154 2166 2171 2175 2184 2188 2182 2175 2171 2162 2158 2156 2149 2137 2133 2127 2118 2117 2118 2112 2101 2088 2067 2046 2028 2010 1991 1982 1980 1972 1962 1957 1948 1938 1935 1937 1936 1938 1942 1941 1941 1942 1941 1939 1941 1940 1936 1939 1944 1942 1941 1948 1957 1967 1979 1988 1995 2005 2016 2019 2024 2033 2037 2035 2035 2036 2034 2035 2036 2032 2026 2024 2018 2011 2005 1996 1983 1975 1968 1958 1948 1945 1945 1941 1942 1939 1936 1940 1946 1944 1941 1946 1944 1940 1943 1938 1939 1943 1942 1941 1944 1943 1941 1944 1941 1932 1919 1898 1869 1846 1829 1821 1847 1916 1994 2056 2132 2222 2310 2399 2487 2562 2628 2688 2718 2701 2649 2581 2500 2414 2321 2217 2108 2010 1914 1821 1739 1684 1673 1716 1771 1805 1843 1897 1935 1944 1950 1959 1958 1951 1951 1950 1949 1950 1950 1949 1953 1964 1971 1979 1990 1994 1986 1981 1974 1969 1979 2001 2017 2029 2036 2031 2018 2009 2007 2011 2027 2048 2059 2065 2067 2057 2046 2046 2054 2064 2078 2090 2094 2094 2093 2092 2089 2093 2100 2109 2125 2141 2146 2154 2166 2171 2175 2184 2188 2182 2175 2171 2162 2158 2156 2149 2137 2133 2127 2118 2117 2118 2112 2101 2088 2067 2046 2028 2010 1991 1982 1980 1972 1962 1957 1948 1938 1935 1937 1936 1938 1942 1941 1941 1942 1941 1939 1941 1940 1936 1939 1944 1942 1941 1948 1957 1967 1979 1988 1995 2005 2016 2019 2024 2033 2037 2035 2035 2036 2034 2035 2036 2032 2026 2024 2018 2011 2005 1996 1983 1975 1968 1958 1948 1945 1945 1941 1942 1939 1936 1940 1946 1944 1941 1946 1944 1940 1943 1938 1939 1943 1942 1941 1944 1943 1941 1944 1941 1932 1919 1898 1869 1846 1829 1821 1847 1916 1994 2056 2132 2222 2310 2399 2487 2562 2628 2688 2718 2701 2649 2581 2500 2414 2321 2217 2108 2010 1914 1821 1739 1684 1673 1716 1771 1805 1843 1897 1935 1944 1950 1959 1958 1951 1951 1950 1949 1950 1950 1949 1953 1964 1971 1979 1990 1994 1986 1981 1974 1969 1979 2001 2017 2029 2036 2031 2018 2009 2007 2011 2027 2048 2059 2065 2067 2057 2046 2046 2054 2064 2078 2090 2094 2094 2093 2092 2089 2093 2100 2109 2125 2141 2146 2154 2166 2171 2175 2184 2188 2182 2175 2171 2162 2158 2156 2149 2137 2133 2127 2118 2117 2118 2112 2101 2088 2067 2046 2028 2010 1991 1982 1980 1972 1962 1957 1948 1938 1935 1937 1936 1938 1942 1941 1941 1942 1941 1939 1941 1940 1936 1939 1944 1942 1941 1948 1957 1967 1979 1988 1995 2005 2016 2019 2024 2033 2037 2035 2035 2036 2034 2035 2036 2032 2026 2024 2018 2011 2005 1996 1983 1975 1968 1958 1948 1945 1945 1941 1942 1939 1936 1940 1946 1944 1941 1946 1944 1940 1943 1938 1939 1943 1942 1941 1944 1943 1941 1944 1941 1932 1919 1898 1869 1846 1829 1821 1847 1916 1994 2056 2132 2222 2310 2399 2487 2562 2628 2688 2718 2701 2649 2581 2500 2414 2321 2217 2108 2010 1914 1821 1739 1684 1673 1716 1771 1805 1843 1897 1935 1944 1950 1959 1958 1951 1951 1950 1949 1950 1950 1949 1953 1964 1971 1979 1990 1994 1986 1981 1974 1969 1979 2001 2017 2029 2036 2031 2018 2009 2007 2011 2027 2048 2059 2065 2067 2057 2046 2046 2054 2064 2078 2090 2094 2094 2093 2092 2089 2093 2100 2109 2125 2141 2146 2154 2166 2171 2175 2184 2188 2182 2175 2171 2162 2158 2156 2149 2137 2133 2127 2118 2117 2118 2112 2101 2088 2067 2046 2028 2010 1991 1982 1980 1972 1962 1957 1948 1938 1935 1937 1936 1938 1942 1941 1941 1942 1941 1939 1941 1940 1936 1939 1944 1942 1941 1948 1957 1967 1979 1988 1995 2005 2016 2019 2024 2033 2037 2035 2035 2036 2034 2035 2036 2032 2026 2024 2018 2011 2005 1996 1983 1975 1968 1958 1948 1945 1945 1941 1942 1939 1936 1940 1946 1944 1941 1946 1944 1940 1943 1938 1939 1943 1942 1941 1944 1943 1941 1944 1941 1932 1919 1898 1869 1846 1829 1821 1847 1916 1994 2056 2132 2222 2310 2399 2487 2562 2628 2688 2718 2701 2649 2581 2500 2414 2321 2217 2108 2010 1914 1821 1739 1684 1673 1716 1771 1805 1843 1897 1935 1944 1950 1959 1958 1951 1951 1950 1949 1950 1950 1949 1953 1964 1971 1979 1990 1994 1986 1981 1974 1969 1979 2001 2017 2029 2036 2031 2018 2009 2007 2011 2027 2048 2059 2065 2067 2057 2046 2046 2054 2064 2078 2090 2094 2094 2093 2092 2089 2093 2100 2109 2125 2141 2146 2154 2166 2171 2175 2184 2188 2182 2175 2171 2162 2158 2156 2149 2137 2133 2127 2118 2117 2118 2112 2101 2088 2067 2046 2028 2010 1991 1982 1980 1972 1962 1957 1948 1938 1935 1937 1936 1938 1942 1941 1941 1942 1941 1939 1941 1940 1936 1939 1944 1942 1941 1948 1957 1967 1979 1988 1995 2005 2016 2019 2024 2033 2037 2035 2035 2036 2034 2035 2036 2032 2026 2024 2018 2011 2005 1996 1983 1975 1968 1958 1948 1945 1945 1941 1942 1939 1936 1940 1946 1944 1941 1946 1944 1940 1943 1938 1939 1943 1942 1941 1944 1943 1941 1944 1941 1932 1919 1898 1869 1846 1829 1821 1847 1916 1994 2056 2132 2222 2310 2399 2487 2562 2628 2688 2718 2701 2649 2581 2500 2414 2321 2217 2108 2010 1914 1821 1739 1684 1673 1716 1771 1805 1843 1897 1935 1944 1950 1959 1958 1951 1951 1950 1949 1950 1950 1949 1953 1964 1971 1979 1990 1994 1986 1981 1974 1969 1979 2001 2017 2029 2036 2031 2018 2009 2007 2011 2027 2048 2059 2065 2067 2057 2046 2046 2054 2064 2078 2090 2094 2094 2093 2092 2089 2093 2100 2109 2125 2141 2146 2154 2166 2171 2175 2184 2188 2182 2175 2171 2162 2158 2156 2149 2137 2133 2127 2118 2117 2118 2112 2101 2088 2067 2046 2028 2010 1991 1982 1980 1972 1962 1957 1948 1938 1935 1937 1936 1938 1942 1941 1941 1942 1941 1939 1941 1940 1936 1939 1944 1942 1941 1948 1957 1967 1979 1988 1995 2005 2016 2019 2024 2033 2037 2035 2035 2036 2034 2035 2036 2032 2026 2024 2018 2011 2005 1996 1983 1975 1968 1958 1948 1945 1945 1941 1942 1939 1936 1940 1946 1944 1941 1946 1944 1940 1943 1938 1939 1943 1942 1941 1944 1943 1941 1944 1941 1932 1919 1898 1869 1846 1829 1821 1847 1916 1994 2056 2132 2222 2310 2399 2487 2562 2628 2688 2718 2701 2649 2581 2500 2414 2321 2217 2108 2010 1914 1821 1739 1684 1673 1716 1771 1805 1843 1897 1935 1944 1950 1959 1958 1951 1951 1950 1949 1950 1950 1949 1953 1964 1971 1979 1990 1994 1986 1981 1974 1969 1979 2001 2017 2029 2036 2031 2018 2009 2007 2011 2027 2048 2059 2065 2067 2057 2046 2046 2054 2064 2078 2090 2094 2094 2093 2092 2089 2093 2100 2109 2125 2141 2146 2154 2166 2171 2175 2184 2188 2182 2175 2171 2162 2158 2156 2149 2137 2133 2127 2118 2117 2118 2112 2101 2088 2067 2046 2028 2010 1991 1982 1980 1972 1962 1957 1948 1938 1935 1937 1936 1938 1942 1941 1941 1942 1941 1939 1941 1940 1936 1939 1944 1942 1941 1948 1957 1967 1979 1988 1995 2005 2016 2019 2024 2033 2037 2035 2035 2036 2034 2035 2036 2032 2026 2024 2018 2011 2005 1996 1983 1975 1968 1958 1948 1945 1945 1941 1942 1939 1936 1940 1946 1944 1941 1946 1944 1940 1943 1938 1939 1943 1942 1941 1944 1943 1941 1944 1941 1932 1919 1898 1869 1846 1829 1821 1847 1916 1994 2056 2132 2222 2310 2399 2487 2562 2628 2688 2718 2701 2649 2581 2500 2414 2321 2217 2108 2010 1914 1821 1739 1684 1673 1716 1771 1805 1843 1897 1935 1944 1950 1959 1958 1951 1951 1950 1949 1950 1950 1949 1953 1964 1971 1979 1990 1994 1986 1981 1974 1969 1979 2001 2017 2029 2036 2031 2018 2009 2007 2011 2027 2048 2059 2065 2067 2057 2046 2046 2054 2064 2078 2090 2094 2094 2093 2092 2089 2093 2100 2109 2125 2141 2146 2154 2166 2171 2175 2184 2188 2182 2175 2171 2162 2158 2156 2149 2137 2133 2127 2118 2117 2118 2112 2101 2088 2067 2046 2028 2010 1991 1982 1980 1972 1962 1957 1948 1938 1935 1937 1936 1938 1942 1941 1941 1942 1941 1939 1941 1940 1936 1939 1944 1942 1941 1948 1957 1967 1979 1988 1995 2005 2016 2019 2024 2033 2037 2035 2035 2036 2034 2035 2036 2032 2026 2024 2018 2011 2005 1996 1983 1975 1968 1958 1948 1945 1945 1941 1942 1939 1936 1940 1946 1944 1941 1946 1944 1940 1943 1938 1939 1943 1942 1941 1944 1943 1941 1944 1941 1932 1919 1898 1869 1846 1829 1821 1847 1916 1994 2056 2132 2222 2310 2399 2487 2562 2628 2688 2718 2701 2649 2581 2500 2414 2321 2217 2108 2010 1914 1821 1739 1684 1673 1716 1771 1805 1843 1897 1935 1944 1950 1959 1958 1951 1951 1950 1949 1950 1950 1949 1953 1964 1971 1979 1990 1994 1986 1981 1974 1969 1979 2001 2017 2029 2036 2031 2018 2009 2007 2011 2027 2048 2059 2065 2067 2057 2046 2046 2054 2064 2078 2090 2094 2094 2093 2092 2089 2093 2100 2109 2125 2141 2146 2154 2166 2171 2175 2184 2188 2182 2175 2171 2162 2158 2156 2149 2137 2133 2127 2118 2117 2118 2112 2101 2088 2067 2046 2028 2010 1991 1982 1980 1972 1962 1957 1948 1938 1935 1937 1936 1938 1942 1941 1941 1942 1941 1939 1941 1940 1936 1939 1944 1942 1941 1948 1957 1967 1979 1988 1995 2005 2016 2019 2024 2033 2037 2035 2035 2036 2034 2035 2036 2032 2026 2024 2018 2011 2005 1996 1983 1975 1968 1958 1948 1945 1945 1941 1942 1939 1936 1940 1946 1944 1941 1946 1944 1940 1943 1938 1939 1943 1942 1941 1944 1943 1941 1944 1941 1932 1919 1898 1869 1846 1829 1821 1847 1916 1994 2056 2132 2222 2310 2399 2487 2562 2628 2688 2718 2701 2649 2581 2500 2414 2321 2217 2108 2010 1914 1821 1739 1684 1673 1716 1771 1805 1843 1897 1935 1944 1950 1959 1958 1951 1951 1950 1949 1950 1950 1949 1953 1964 1971 1979 1990 1994 1986 1981 1974 1969 1979 2001 2017 2029 2036 2031 2018 2009 2007 2011 2027 2048 2059 2065 2067 2057 2046 2046 2054 2064 2078 2090 2094 2094 2093 2092 2089 2093 2100 2109 2125 2141 2146 2154 2166 2171 2175 2184 2188 2182 2175 2171 2162 2158 2156 2149 2137 2133 2127 2118 2117 2118 2112 2101 2088 2067 2046 2028 2010 1991 1982 1980 1972 1962 1957 1948 1938 1935 1937 1936 1938 1942 1941 1941 1942 1941 1939 1941 1940 1936 1939 1944 1942 1941 1948 1957 1967 1979 1988 1995 2005 2016 2019 2024 2033 2037 2035 2035 2036 2034 2035 2036 2032 2026 2024 2018 2011 2005 1996 1983 1975 1968 1958 1948 1945 1945 1941 1942 1939 1936 1940 1946 1944 1941 1946 1944 1940 1943 1938 1939 1943 1942 1941 1944 1943 1941 1944 1941 1932 1919 1898 1869 1846 1829 1821 1847 1916 1994 2056 2132 2222 2310 2399 2487 2562 2628 2688 2718 2701 2649 2581 2500 2414 2321 2217 2108 2010 1914 1821 1739 1684 1673 1716 1771 1805 1843 1897 1935 1944 1950 1959 1958 1951 1951 1950 1949 1950 1950 1949 1953 1964 1971 1979 1990 1994 1986 1981 1974 1969 1979 2001 2017 2029 2036 2031 2018 2009 2007 2011 2027 2048 2059 2065 2067 2057 2046 2046 2054 2064 2078 2090 2094 2094 2093 2092 2089 2093 2100 2109 2125 2141 2146 2154 2166 2171 2175 2184 2188 2182 2175 2171 2162 2158 2156 2149 2137 2133 2127 2118 2117 2118 2112 2101 2088 2067 2046 2028 2010 1991 1982 1980 1972 1962 1957 1948 1938 1935 1937 1936 1938 1942 1941 1941 1942 1941 1939 1941 1940 1936 1939 1944 1942 1941 1948 1957 1967 1979 1988 1995 2005 2016 2019 2024 2033 2037 2035 2035 2036 2034 2035 2036 2032 2026 2024 2018 2011 2005 1996 1983 1975 1968 1958 1948 1945 1945 1941 1942 1939 1936 1940 1946 1944 1941 1946 1944 1940 1943 1938 1939 1943 1942 1941 1944 1943 1941 1944 1941 1932 1919 1898 1869 1846 1829 1821 1847 1916 1994 2056 2132 2222 2310 2399 2487 2562 2628 2688 2718 2701 2649 2581 2500 2414 2321 2217 2108 2010 1914 1821 1739 1684 1673 1716 1771 1805 1843 1897 1935 1944 1950 1959 1958 1951 1951 1950 1949 1950 1950 1949 1953 1964 1971 1979 1990 1994 1986 1981 1974 1969 1979 2001 2017 2029 2036 2031 2018 2009 2007 2011 2027 2048 2059 2065 2067 2057 2046 2046 2054 2064 2078 2090 2094 2094 2093 2092 2089 2093 2100 2109 2125 2141 2146 2154 2166 2171 2175 2184 2188 2182 2175 2171 2162 2158 2156 2149 2137 2133 2127 2118 2117 2118 2112 2101 2088 2067 2046 2028 2010 1991 1982 1980 1972 1962 1957 1948 1938 1935 1937 1936 1938 1942 1941 1941 1942 1941 1939 1941 1940 1936 1939 1944 1942 1941 1948 1957 1967 1979 1988 1995 2005 2016 2019 2024 2033 2037 2035 2035 2036 2034 2035 2036 2032 2026 2024 2018 2011 2005 1996 1983 1975 1968 1958 1948 1945 1945 1941 1942 1939 1936 1940 1946 1944 1941 1946 1944 1940 1943 1938 1939 1943 1942 1941 1944 1943 1941 1944 1941 1932 1919 1898 1869 1846 1829 1821 1847 1916 1994 2056 2132 2222 2310 2399 2487 2562 2628 2688 2718 2701 2649 2581 2500 2414 2321 2217 2108 2010 1914 1821 1739 1684 1673 1716 1771 1805 1843 1897 1935 1944 1950 1959 1958 1951 1951 1950 1949 1950 1950 1949 1953 1964 1971 1979 1990 1994 1986 1981 1974 1969 1979 2001 2017 2029 2036 2031 2018 2009 2007 2011 2027 2048 2059 2065 2067 2057 2046 2046 2054 2064 2078 2090 2094 2094 2093 2092 2089 2093 2100 2109 2125 2141 2146 2154 2166 2171 2175 2184 2188 2182 2175 2171 2162 2158 2156 2149 2137 2133 2127 2118 2117 2118 2112 2101 2088 2067 2046 2028 2010 1991 1982 1980 1972 1962 1957 1948 1938 1935 1937 1936 1938 1942 1941 1941 1942 1941 1939 1941 1940 1936 1939 1944 1942 1941 1948 1957 1967 1979 1988 1995 2005 2016 2019 2024 2033 2037 2035 2035 2036 2034 2035 2036 2032 2026 2024 2018 2011 2005 1996 1983 1975 1968 1958 1948 1945 1945 1941 1942 1939 1936 1940 1946 1944 1941 1946 1944 1940 1943 1938 1939 1943 1942 1941 1944 1943 1941 1944 1941 1932 1919 1898 1869 1846 1829 1821 1847 1916 1994 2056 2132 2222 2310 2399 2487 2562 2628 2688 2718 2701 2649 2581 2500 2414 2321 2217 2108 2010 1914 1821 1739 1684 1673 1716 1771 1805 1843 1897 1935 1944 1950 1959 1958 1951 1951 1950 1949 1950 1950 1949 1953 1964 1971 1979 1990 1994 1986 1981 1974 1969 1979 2001 2017 2029 2036 2031 2018 2009 2007 2011 2027 2048 2059 2065 2067 2057 2046 2046 2054 2064 2078 2090 2094 2094 2093 2092 2089 2093 2100 2109 2125 2141 2146 2154 2166 2171 2175 2184 2188 2182 2175 2171 2162 2158 2156 2149 2137 2133 2127 2118 2117 2118 2112 2101 2088 2067 2046 2028 2010 1991 1982 1980 1972 1962 1957 1948 1938 1935 1937 1936 1938 1942 1941 1941 1942 1941 1939 1941 1940 1936 1939 1944 1942 1941 1948 1957 1967 1979 1988 1995 2005 2016 2019 2024 2033 2037 2035 2035 2036 2034 2035 2036 2032 2026 2024 2018 2011 2005 1996 1983 1975 1968 1958 1948 1945 1945 1941 1942 1939 1936 1940 1946 1944 1941 1946 1944 1940 1943 1938 1939 1943 1942 1941 1944 1943 1941 1944 1941 1932 1919 1898 1869 1846 1829 1821 1847 1916 1994 2056 2132 2222 2310 2399 2487 2562 2628 2688 2718 2701 2649 2581 2500 2414 2321 2217 2108 2010 1914 1821 1739 1684 1673 1716 1771 1805 1843 1897 1935 1944 1950 1959 1958 1951 1951 1950 1949 1950 1950 1949 1953 1964 1971 1979 1990 1994 1986 1981 1974 1969 1979 2001 2017 2029 2036 2031 2018 2009 2007 2011 2027 2048 2059 2065 2067 2057 2046 2046 2054 2064 2078 2090 2094 2094 2093 2092 2089 2093 2100 2109 2125 2141 2146 2154 2166 2171 2175 2184 2188 2182 2175 2171 2162 2158 2156 2149 2137 2133 2127 2118 2117 2118 2112 2101 2088 2067 2046 2028 2010 1991 1982 1980 1972 1962 1957 1948 1938 1935 1937 1936 1938 1942 1941 1941 1942 1941 1939 1941 1940 1936 1939 1944 1942 1941 1948 1957 1967 1979 1988 1995 2005 2016 2019 2024 2033 2037 2035 2035 2036 2034 2035 2036 2032 2026 2024 2018 2011 2005 1996 1983 1975 1968 1958 1948 1945 1945 1941 1942 1939 1936 1940 1946 1944 1941 1946 1944 1940 1943 1938 1939 1943 1942 1941 1944 1943 1941 1944 1941 1932 1919 1898 1869 1846 1829 1821 1847 1916 1994 2056 2132 2222 2310 2399 2487 2562 2628 2688 2718 2701 2649 2581 2500 2414 2321 2217 2108 2010 1914 1821 1739 1684 1673 1716 1771 1805 1843 1897 1935 1944 1950 1959 1958 1951 1951 1950 1949 1950 1950 1949 1953 1964 1971 1979 1990 1994 1986 1981 1974 1969 1979 2001 2017 2029 2036 2031 2018 2009 2007 2011 2027 2048 2059 2065 2067 2057 2046 2046 2054 2064 2078 2090 2094 2094 2093 2092 2089 2093 2100 2109 2125 2141 2146 2154 2166 2171 2175 2184 2188 2182 2175 2171 2162 2158 2156 2149 2137 2133 2127 2118 2117 2118 2112 2101 2088 2067 2046 2028 2010 1991 1982 1980 1972 1962 1957 1948 1938 1935 1937 1936 1938 1942 1941 1941 1942 1941 1939 1941 1940 1936 1939 1944 1942 1941 1948 1957 1967 1979 1988 1995 2005 2016 2019 2024 2033 2037 2035 2035 2036 2034 2035 2036 2032 2026 2024 2018 2011 2005 1996 1983 1975 1968 1958 1948 1945 1945 1941 1942 1939 1936 1940 1946 1944 1941 1946 1944 1940 1943 1938 1939 1943 1942 1941 1944 1943 1941 1944 1941 1932 1919 1898 1869 1846 1829 1821 1847 1916 1994 2056 2132 2222 2310 2399 2487 2562 2628 2688 2718 2701 2649 2581 2500 2414 2321 2217 2108 2010 1914 1821 1739 1684 1673 1716 1771 1805 1843 1897 1935 1944 1950 1959 1958 1951 1951 1950 1949 1950 1950 1949 1953 1964 1971 1979 1990 1994 1986 1981 1974 1969 1979 2001 2017 2029 2036 2031 2018 2009 2007 2011 2027 2048 2059 2065 2067 2057 2046 2046 2054 2064 2078 2090 2094 2094 2093 2092 2089 2093 2100 2109 2125 2141 2146 2154 2166 2171 2175 2184 2188 2182 2175 2171 2162 2158 2156 2149 2137 2133 2127 2118 2117 2118 2112 2101 2088 2067 2046 2028 2010 1991 1982 1980 1972 1962 1957 1948 1938 1935 1937 1936 1938 1942 1941 1941 1942 1941 1939 1941 1940 1936 1939 1944 1942 1941 1948 1957 1967 1979 1988 1995 2005 2016 2019 2024 2033 2037 2035 2035 2036 2034 2035 2036 2032 2026 2024 2018 2011 2005 1996 1983 1975 1968 1958 1948 1945 1945 1941 1942 1939 1936 1940 1946 1944 1941 1946 1944 1940 1943 1938 1939 1943 1942 1941 1944 1943 1941 1944 1941 1932 1919 1898 1869 1846 1829 1821 1847 1916 1994 2056 2132 2222 2310 2399 2487 2562 2628 2688 2718 2701 2649 2581 2500 2414 2321 2217 2108 2010 1914 1821 1739 1684 1673 1716 1771 1805 1843 1897 1935 1944 1950 1959 1958 1951 1951 1950 1949 1950 1950 1949 1953 1964 1971 1979 1990 1994 1986 1981 1974 1969 1979 2001 2017 2029 2036 2031 2018 2009 2007 2011 2027 2048 2059 2065 2067 2057 2046 2046 2054 2064 2078 2090 2094 2094 2093 2092 2089 2093 2100 2109 2125 2141 2146 2154 2166 2171 2175 2184 2188 2182 2175 2171 2162 2158 2156 2149 2137 2133 2127 2118 2117 2118 2112 2101 2088 2067 2046 2028 2010 1991 1982 1980 1972 1962 1957 1948 1938 1935 1937 1936 1938 1942 1941 1941 1942 1941 1939 1941 1940 1936 1939 1944 1942 1941 1948 1957 1967 1979 1988 1995 2005 2016 2019 2024 2033 2037 2035 2035 2036 2034 2035 2036 2032 2026 2024 2018 2011 2005 1996 1983 1975 1968 1958 1948 1945 1945 1941 1942 1939 1936 1940 1946 1944 1941 1946 1944 1940 1943 1938 1939 1943 1942 1941 1944 1943 1941 1944 1941 1932 1919 1898 1869 1846 1829 1821 1847 1916 1994 2056 2132 2222 2310 2399 2487 2562 2628 2688 2718 2701 2649 2581 2500 2414 2321 2217 2108 2010 1914 1821 1739 1684 1673 1716 1771 1805 1843 1897 1935 1944 1950 1959 1958 1951 1951 1950 1949 1950 1950 1949 1953 1964 1971 1979 1990 1994 1986 1981 1974 1969 1979 2001 2017 2029 2036 2031 2018 2009 2007 2011 2027 2048 2059 2065 2067 2057 2046 2046 2054 2064 2078 2090 2094 2094 2093 2092 2089 2093 2100 2109 2125 2141 2146 2154 2166 2171 2175 2184 2188 2182 2175 2171 2162 2158 2156 2149 2137 2133 2127 2118 2117 2118 2112 2101 2088 2067 2046 2028 2010 1991 1982 1980 1972 1962 1957 1948 1938 1935 1937 1936 1938 1942 1941 1941 1942 1941 1939 1941 1940 1936 1939 1944 1942 1941 1948 1957 1967 1979 1988 1995 2005 2016 2019 2024 2033 2037 2035 2035 2036 2034 2035 2036 2032 2026 2024 2018 2011 2005 1996 1983 1975 1968 1958 1948 1945 1945 1941 1942 1939 1936 1940 1946 1944 1941 1946 1944 1940 1943 1938 1939 1943 1942 1941 1944 1943 1941 1944 1941 1932 1919 1898 1869 1846 1829 1821 1847 1916 1994 2056 2132 2222 2310 2399 2487 2562 2628 2688 2718 2701 2649 2581 2500 2414 2321 2217 2108 2010 1914 1821 1739 1684 1673 1716 1771 1805 1843 1897 1935 1944 1950 1959 1958 1951 1951 1950 1949 1950 1950 1949 1953 1964 1971 1979 1990 1994 1986 1981 1974 1969 1979 2001 2017 2029 2036 2031 2018 2009 2007 2011 2027 2048 2059 2065 2067 2057 2046 2046 2054 2064 2078 2090 2094 2094 2093 2092 2089 2093 2100 2109 2125 2141 2146 2154 2166 2171 2175 2184 2188 2182 2175 2171 2162 2158 2156 2149 2137 2133 2127 2118 2117 2118 2112 2101 2088 2067 2046 2028 2010 1991 1982 1980 1972 1962 1957 1948 1938 1935 1937 1936 1938 1942 1941 1941 1942 1941 1939 1941 1940 1936 1939 1944 1942 1941 1948 1957 1967 1979 1988 1995 2005 2016 2019 2024 2033 2037 2035 2035 2036 2034 2035 2036 2032 2026 2024 2018 2011 2005 1996 1983 1975 1968 1958 1948 1945 1945 1941 1942 1939 1936 1940 1946 1944 1941 1946 1944 1940 1943 1938 1939 1943 1942 1941 1944 1943 1941 1944 1941 1932 1919 1898 1869 1846 1829 1821 1847 1916 1994 2056 2132 2222 2310 2399 2487 2562 2628 2688 2718 2701 2649 2581 2500 2414 2321 2217 2108 2010 1914 1821 1739 1684 1673 1716 1771 1805 1843 1897 1935 1944 1950 1959 1958 1951 1951 1950 1949 1950 1950 1949 1953 1964 1971 1979 1990 1994 1986 1981 1974 1969 1979 2001 2017 2029 2036 2031 2018 2009 2007 2011 2027 2048 2059 2065 2067 2057 2046 2046 2054 2064 2078 2090 2094 2094 2093 2092 2089 2093 2100 2109 2125 2141 2146 2154 2166 2171 2175 2184 2188 2182 2175 2171 2162 2158 2156 2149 2137 2133 2127 2118 2117 2118 2112 2101 2088 2067 2046 2028 2010 1991 1982 1980 1972 1962 1957 1948 1938 1935 1937 1936 1938 1942 1941 1941 1942 1941 1939 1941 1940 1936 1939 1944 1942 1941 1948 1957 1967 1979 1988 1995 2005 2016 2019 2024 2033 2037 2035 2035 2036 2034 2035 2036 2032 2026 2024 2018 2011 2005 1996 1983 1975 1968 1958 1948 1945 1945 1941 1942 1939 1936 1940 1946 1944 1941 1946 1944 1940 1943 1938 1939 1943 1942 1941 1944 1943 1941 1944 1941 1932 1919 1898 1869 1846 1829 1821 1847 1916 1994 2056 2132 2222 2310 2399 2487 2562 2628 2688 2718 2701 2649 2581 2500 2414 2321 2217 2108 2010 1914 1821 1739 1684 1673 1716 1771 1805 1843 1897 1935 1944 1950 1959 1958 1951 1951 1950 1949 1950 1950 1949 1953 1964 1971 1979 1990 1994 1986 1981 1974 1969 1979 2001 2017 2029 2036 2031 2018 2009 2007 2011 2027 2048 2059 2065 2067 2057 2046 2046 2054 2064 2078 2090 2094 2094 2093 2092 2089 2093 2100 2109 2125 2141 2146 2154 2166 2171 2175 2184 2188 2182 2175 2171 2162 2158 2156 2149 2137 2133 2127 2118 2117 2118 2112 2101 2088 2067 2046 2028 2010 1991 1982 1980 1972 1962 1957 1948 1938 1935 1937 1936 1938 1942 1941 1941 1942 1941 1939 1941 1940 1936 1939 1944 1942 1941 1948 1957 1967 1979 1988 1995 2005 2016 2019 2024 2033 2037 2035 2035 2036 2034 2035 2036 2032 2026 2024 2018 2011 2005 1996 1983 1975 1968 1958 1948 1945 1945 1941 1942 1939 1936 1940 1946 1944 1941 1946 1944 1940 1943 1938 1939 1943 1942 1941 1944 1943 1941 1944 1941 1932 1919 1898 1869 1846 1829 1821 1847 1916 1994 2056 2132 2222 2310 2399 2487 2562 2628 2688 2718 2701 2649 2581 2500 2414 2321 2217 2108 2010 1914 1821 1739 1684 1673 1716 1771 1805 1843 1897 1935 1944 1950 1959 1958 1951 1951 1950 1949 1950 1950 1949 1953 1964 1971 1979 1990 1994 1986 1981 1974 1969 1979 2001 2017 2029 2036 2031 2018 2009 2007 2011 2027 2048 2059 2065 2067 2057 2046 2046 2054 2064 2078 2090 2094 2094 2093 2092 2089 2093 2100 2109 2125 2141 2146 2154 2166 2171 2175 2184 2188 2182 2175 2171 2162 2158 2156 2149 2137 2133 2127 2118 2117 2118 2112 2101 2088 2067 2046 2028 2010 1991 1982 1980 1972 1962 1957 1948 1938 1935 1937 1936 1938 1942 1941 1941 1942 1941 1939 1941 1940 1936 1939 1944 1942 1941 1948 1957 1967 1979 1988 1995 2005 2016 2019 2024 2033 2037 2035 2035 2036 2034 2035 2036 2032 2026 2024 2018 2011 2005 1996 1983 1975 1968 1958 1948 1945 1945 1941 1942 1939 1936 1940 1946 1944 1941 1946 1944 1940 1943 1938 1939 1943 1942 1941 1944 1943 1941 1944 1941 1932 1919 1898 1869 1846 1829 1821 1847 1916 1994 2056 2132 2222 2310 2399 2487 2562 2628 2688 2718 2701 2649 2581 2500 2414 2321 2217 2108 2010 1914 1821 1739 1684 1673 1716 1771 1805 1843 1897 1935 1944 1950 1959 1958 1951 1951 1950 1949 1950 1950 1949 1953 1964 1971 1979 1990 1994 1986 1981 1974 1969 1979 2001 2017 2029 2036 2031 2018 2009 2007 2011 2027 2048 2059 2065 2067 2057 2046 2046 2054 2064 2078 2090 2094 2094 2093 2092 2089 2093 2100 2109 2125 2141 2146 2154 2166 2171 2175 2184 2188 2182 2175 2171 2162 2158 2156 2149 2137 2133 2127 2118 2117 2118 2112 2101 2088 2067 2046 2028 2010 1991 1982 1980 1972 1962 1957 1948 1938 1935 1937 1936 1938 1942 1941 1941 1942 1941 1939 1941 1940 1936 1939 1944 1942 1941 1948 1957 1967 1979 1988 1995 2005 2016 2019 2024 2033 2037 2035 2035 2036 2034 2035 2036 2032 2026 2024 2018 2011 2005 1996 1983 1975 1968 1958 1948 1945 1945 1941 1942 1939 1936 1940 1946 1944 1941 1946 1944 1940 1943 1938 1939 1943 1942 1941 1944 1943 1941 1944 1941 1932 1919 1898 1869 1846 1829 1821 1847 1916 1994 2056 2132 2222 2310 2399 2487 2562 2628 2688 2718 2701 2649 2581 2500 2414 2321 2217 2108 2010 1914 1821 1739 1684 1673 1716 1771 1805 1843 1897 1935 1944 1950 1959 1958 1951 1951 1950 1949 1950 1950 1949 1953 1964 1971 1979 1990 1994 1986 1981 1974 1969 1979 2001 2017 2029 2036 2031 2018 2009 2007 2011 2027 2048 2059 2065 2067 2057 2046 2046 2054 2064 2078 2090 2094 2094 2093 2092 2089 2093 2100 2109 2125 2141 2146 2154 2166 2171 2175 2184 2188 2182 2175 2171 2162 2158 2156 2149 2137 2133 2127 2118 2117 2118 2112 2101 2088 2067 2046 2028 2010 1991 1982 1980 1972 1962 1957 1948 1938 1935 1937 1936 1938 1942 1941 1941 1942 1941 1939 1941 1940 1936 1939 1944 1942 1941 1948 1957 1967 1979 1988 1995 2005 2016 2019 2024 2033 2037 2035 2035 2036 2034 2035 2036 2032 2026 2024 2018 2011 2005 1996 1983 1975 1968 1958 1948 1945 1945 1941 1942 1939 1936 1940 1946 1944 1941 1946 1944 1940 1943 1938 1939 1943 1942 1941 1944 1943 1941 1944 1941 1932 1919 1898 1869 1846 1829 1821 1847 1916 1994 2056 2132 2222 2310 2399 2487 2562 2628 2688 2718 2701 2649 2581 2500 2414 2321 2217 2108 2010 1914 1821 1739 1684 1673 1716 1771 1805 1843 1897 1935 1944 1950 1959 1958 1951 1951 1950 1949 1950 1950 1949 1953 1964 1971 1979 1990 1994 1986 1981 1974 1969 1979 2001 2017 2029 2036 2031 2018 2009 2007 2011 2027 2048 2059 2065 2067 2057 2046 2046 2054 2064 2078 2090 2094 2094 2093 2092 2089 2093 2100 2109 2125 2141 2146 2154 2166 2171 2175 2184 2188 2182 2175 2171 2162 2158 2156 2149 2137 2133 2127 2118 2117 2118 2112 2101 2088 2067 2046 2028 2010 1991 1982 1980 1972 1962 1957 1948 1938 1935 1937 1936 1938 1942 1941 1941 1942 1941 1939 1941 1940 1936 1939 1944 1942 1941 1948 1957 1967 1979 1988 1995 2005 2016 2019 2024 2033 2037 2035 2035 2036 2034 2035 2036 2032 2026 2024 2018 2011 2005 1996 1983 1975 1968 1958 1948 1945 1945 1941 1942 1939 1936 1940 1946 1944 1941 1946 1944 1940 1943 1938 1939 1943 1942 1941 1944 1943 1941 1944 1941 1932 1919 1898 1869 1846 1829 1821 1847 1916 1994 2056 2132 2222 2310 2399 2487 2562 2628 2688 2718 2701 2649 2581 2500 2414 2321 2217 2108 2010 1914 1821 1739 1684 1673 1716 1771 1805 1843 1897 1935 1944 1950 1959 1958 1951 1951 1950 1949 1950 1950 1949 1953 1964 1971 1979 1990 1994 1986 1981 1974 1969 1979 2001 2017 2029 2036 2031 2018 2009 2007 2011 2027 2048 2059 2065 2067 2057 2046 2046 2054 2064 2078 2090 2094 2094 2093 2092 2089 2093 2100 2109 2125 2141 2146 2154 2166 2171 2175 2184 2188 2182 2175 2171 2162 2158 2156 2149 2137 2133 2127 2118 2117 2118 2112 2101 2088 2067 2046 2028 2010 1991 1982 1980 1972 1962 1957 1948 1938 1935 1937 1936 1938 1942 1941 1941 1942 1941 1939 1941 1940 1936 1939 1944 1942 1941 1948 1957 1967 1979 1988 1995 2005 2016 2019 2024 2033 2037 2035 2035 2036 2034 2035 2036 2032 2026 2024 2018 2011 2005 1996 1983 1975 1968 1958 1948 1945 1945 1941 1942 1939 1936 1940 1946 1944 1941 1946 1944 1940 1943 1938 1939 1943 1942 1941 1944 1943 1941 1944 1941 1932 1919 1898 1869 1846 1829 1821 1847 1916 1994 2056 2132 2222 2310 2399 2487 2562 2628 2688 2718 2701 2649 2581 2500 2414 2321 2217 2108 2010 1914 1821 1739 1684 1673 1716 1771 1805 1843 1897 1935 1944 1950 1959 1958 1951 1951 1950 1949 1950 1950 1949 1953 1964 1971 1979 1990 1994 1986 1981 1974 1969 1979 2001 2017 2029 2036 2031 2018 2009 2007 2011 2027 2048 2059 2065 2067 2057 2046 2046 2054 2064 2078 2090 2094 2094 2093 2092 2089 2093 2100 2109 2125 2141 2146 2154 2166 2171 2175 2184 2188 2182 2175 2171 2162 2158 2156 2149 2137 2133 2127 2118 2117 2118 2112 2101 2088 2067 2046 2028 2010 1991 1982 1980 1972 1962 1957 1948 1938 1935 1937 1936 1938 1942 1941 1941 1942 1941 1939 1941 1940 1936 1939 1944 1942 1941 1948 1957 1967 1979 1988 1995 2005 2016 2019 2024 2033 2037 2035 2035 2036 2034 2035 2036 2032 2026 2024 2018 2011 2005 1996 1983 1975 1968 1958 1948 1945 1945 1941 1942 1939 1936 1940 1946 1944 1941 1946 1944 1940 1943 1938 1939 1943 1942 1941 1944 1943 1941 1944 1941 1932 1919 1898 1869 1846 1829 1821 1847 1916 1994 2056 2132 2222 2310 2399 2487 2562 2628 2688 2718 2701 2649 2581 2500 2414 2321 2217 2108 2010 1914 1821 1739 1684 1673 1716 1771 1805 1843 1897 1935 1944 1950 1959 1958 1951 1951 1950 1949 1950 1950 1949 1953 1964 1971 1979 1990 1994 1986 1981 1974 1969 1979 2001 2017 2029 2036 2031 2018 2009 2007 2011 2027 2048 2059 2065 2067 2057 2046 2046 2054 2064 2078 2090 2094 2094 2093 2092 2089 2093 2100 2109 2125 2141 2146 2154 2166 2171 2175 2184 2188 2182 2175 2171 2162 2158 2156 2149 2137 2133 2127 2118 2117 2118 2112 2101 2088 2067 2046 2028 2010 1991 1982 1980 1972 1962 1957 1948 1938 1935 1937 1936 1938 1942 1941 1941 1942 1941 1939 1941 1940 1936 1939 1944 1942 1941 1948 1957 1967 1979 1988 1995 2005 2016 2019 2024 2033 2037 2035 2035 2036 2034 2035 2036 2032 2026 2024 2018 2011 2005 1996 1983 1975 1968 1958 1948 1945 1945 1941 1942 1939 1936 1940 1946 1944 1941 1946 1944 1940 1943 1938 1939 1943 1942 1941 1944 1943 1941 1944 1941 1932 1919 1898 1869 1846 1829 1821 1847 1916 1994 2056 2132 2222 2310 2399 2487 2562 2628 2688 2718 2701 2649 2581 2500 2414 2321 2217 2108 2010 1914 1821 1739 1684 1673 1716 1771 1805 1843 1897 1935 1944 1950 1959 1958 1951 1951 1950 1949 1950 1950 1949 1953 1964 1971 1979 1990 1994 1986 1981 1974 1969 1979 2001 2017 2029 2036 2031 2018 2009 2007 2011 2027 2048 2059 2065 2067 2057 2046 2046 2054 2064 2078 2090 2094 2094 2093 2092 2089 2093 2100 2109 2125 2141 2146 2154 2166 2171 2175 2184 2188 2182 2175 2171 2162 2158 2156 2149 2137 2133 2127 2118 2117 2118 2112 2101 2088 2067 2046 2028 2010 1991 1982 1980 1972 1962 1957 1948 1938 1935 1937 1936 1938 1942 1941 1941 1942 1941 1939 1941 1940 1936 1939 1944 1942 1941 1948 1957 1967 1979 1988 1995 2005 2016 2019 2024 2033 2037 2035 2035 2036 2034 2035 2036 2032 2026 2024 2018 2011 2005 1996 1983 1975 1968 1958 1948 1945 1945 1941 1942 1939 1936 1940 1946 1944 1941 1946 1944 1940 1943 1938 1939 1943 1942 1941 1944 1943 1941 1944 1941 1932 1919 1898 1869 1846 1829 1821 1847 1916 1994 2056 2132 2222 2310 2399 2487 2562 2628 2688 2718 2701 2649 2581 2500 2414 2321 2217 2108 2010 1914 1821 1739 1684 1673 1716 1771 1805 1843 1897 1935 1944 1950 1959 1958 1951 1951 1950 1949 1950 1950 1949 1953 1964 1971 1979 1990 1994 1986 1981 1974 1969 1979 2001 2017 2029 2036 2031 2018 2009 2007 2011 2027 2048 2059 2065 2067 2057 2046 2046 2054 2064 2078 2090 2094 2094 2093 2092 2089 2093 2100 2109 2125 2141 2146 2154 2166 2171 2175 2184 2188 2182 2175 2171 2162 2158 2156 2149 2137 2133 2127 2118 2117 2118 2112 2101 2088 2067 2046 2028 2010 1991 1982 1980 1972 1962 1957 1948 1938 1935 1937 1936 1938 1942 1941 1941 1942 1941 1939 1941 1940 1936 1939 1944 1942 1941 1948 1957 1967 1979 1988 1995 2005 2016 2019 2024 2033 2037 2035 2035 2036 2034 2035 2036 2032 2026 2024 2018 2011 2005 1996 1983 1975 1968 1958 1948 1945 1945 1941 1942 1939 1936 1940 1946 1944 1941 1946 1944 1940 1943 1938 1939 1943 1942 1941 1944 1943 1941 1944 1941 1932 1919 1898 1869 1846 1829 1821 1847 1916 1994 2056 2132 2222 2310 2399 2487 2562 2628 2688 2718 2701 2649 2581 2500 2414 2321 2217 2108 2010 1914 1821 1739 1684 1673 1716 1771 1805 1843 1897 1935 1944 1950 1959 1958 1951 1951 1950 1949 1950 1950 1949 1953 1964 1971 1979 1990 1994 1986 1981 1974 1969 1979 2001 2017 2029 2036 2031 2018 2009 2007 2011 2027 2048 2059 2065 2067 2057 2046 2046 2054 2064 2078 2090 2094 2094 2093 2092 2089 2093 2100 2109 2125 2141 2146 2154 2166 2171 2175 2184 2188 2182 2175 2171 2162 2158 2156 2149 2137 2133 2127 2118 2117 2118 2112 2101 2088 2067 2046 2028 2010 1991 1982 1980 1972 1962 1957 1948 1938 1935 1937 1936 1938 1942 1941 1941 1942 1941 1939 1941 1940 1936 1939 1944 1942 1941 1948 1957 1967 1979 1988 1995 2005 2016 2019 2024 2033 2037 2035 2035 2036 2034 2035 2036 2032 2026 2024 2018 2011 2005 1996 1983 1975 1968 1958 1948 1945 1945 1941 1942 1939 1936 1940 1946 1944 1941 1946 1944 1940 1943 1938 1939 1943 1942 1941 1944 1943 1941 1944 1941 1932 1919 1898 1869 1846 1829 1821 1847 1916 1994 2056 2132 2222 2310 2399 2487 2562 2628 2688 2718 2701 2649 2581 2500 2414 2321 2217 2108 2010 1914 1821 1739 1684 1673 1716 1771 1805 1843 1897 1935 1944 1950 1959 1958 1951 1951 1950 1949 1950 1950 1949 1953 1964 1971 1979 1990 1994 1986 1981 1974 1969 1979 2001 2017 2029 2036 2031 2018 2009 2007 2011 2027 2048 2059 2065 2067 2057 2046 2046 2054 2064 2078 2090 2094 2094 2093 2092 2089 2093 2100 2109 2125 2141 2146 2154 2166 2171 2175 2184 2188 2182 2175 2171 2162 2158 2156 2149 2137 2133 2127 2118 2117 2118 2112 2101 2088 2067 2046 2028 2010 1991 1982 1980 1972 1962 1957 1948 1938 1935 1937 1936 1938 1942 1941 1941 1942 1941 1939 1941 1940 1936 1939 1944 1942 1941 1948 1957 1967 1979 1988 1995 2005 2016 2019 2024 2033 2037 2035 2035 2036 2034 2035 2036 2032 2026 2024 2018 2011 2005 1996 1983 1975 1968 1958 1948 1945 1945 1941 1942 1939 1936 1940 1946 1944 1941 1946 1944 1940 1943 1938 1939 1943 1942 1941 1944 1943 1941 1944 